Data from oven-75C-5d_1e-6_Absorbance_08-44-33-167.txt Node
Date: Tue Aug 29 08:44:33 EDT 2023
User: UV-vis
Spectrometer: FLMS04918
Trigger mode: 0
Integration Time (sec): 1.000000E-1
Scans to average: 3
Electric dark correction enabled: true
Nonlinearity correction enabled: false
Boxcar width: 3
XAxis mode: Wavelengths
Number of Pixels in Spectrum: 2048
>>>>>Begin Spectral Data<<<<<
179.23	0.73149
179.611	0.67988
179.992	0.61645
180.373	0.51671
180.754	0.38738
181.134	0.19408
181.515	-0.50041
181.896	-0.93412
182.276	-0.09722
182.657	0.67771
183.038	-0
183.418	-0
183.799	-0
184.179	-0
184.56	-1.19318
184.94	-0.0102
185.32	0.12598
185.701	-0.17591
186.081	-0
186.461	0.28029
186.842	0.21561
187.222	0.21771
187.602	0.22198
187.982	0.22649
188.362	0.22609
188.742	0.22637
189.122	0.22705
189.502	0.22599
189.882	0.22682
190.262	0.22769
190.642	0.22742
191.022	0.22706
191.402	0.22901
191.781	0.22764
192.161	0.22812
192.541	0.22766
192.92	0.22708
193.3	0.22632
193.68	0.22782
194.059	0.22578
194.439	0.22704
194.818	0.22912
195.198	0.23034
195.577	0.23051
195.957	0.23035
196.336	0.22973
196.715	0.23046
197.094	0.23005
197.474	0.22758
197.853	0.22599
198.232	0.22499
198.611	0.22512
198.99	0.22486
199.369	0.22491
199.748	0.22519
200.127	0.22562
200.506	0.22628
200.885	0.22654
201.264	0.22575
201.643	0.22635
202.022	0.22622
202.401	0.22652
202.779	0.22685
203.158	0.22678
203.537	0.22619
203.915	0.22604
204.294	0.22496
204.673	0.22468
205.051	0.22448
205.43	0.2237
205.808	0.22354
206.187	0.22332
206.565	0.22324
206.943	0.22419
207.322	0.22399
207.7	0.22233
208.078	0.22326
208.456	0.2234
208.835	0.22417
209.213	0.22542
209.591	0.2243
209.969	0.22462
210.347	0.22615
210.725	0.22622
211.103	0.22569
211.481	0.22589
211.859	0.22518
212.237	0.22497
212.614	0.22425
212.992	0.22354
213.37	0.22307
213.748	0.22462
214.125	0.22332
214.503	0.22301
214.881	0.22404
215.258	0.2223
215.636	0.22329
216.013	0.22356
216.391	0.22264
216.768	0.22318
217.145	0.22359
217.523	0.22194
217.9	0.22407
218.277	0.22465
218.655	0.22433
219.032	0.22266
219.409	0.2227
219.786	0.22364
220.163	0.22381
220.54	0.22395
220.917	0.22295
221.294	0.22325
221.671	0.22492
222.048	0.22561
222.425	0.22587
222.802	0.22668
223.179	0.22661
223.556	0.22593
223.932	0.22612
224.309	0.22626
224.686	0.22521
225.062	0.22496
225.439	0.22403
225.815	0.22318
226.192	0.22315
226.568	0.22249
226.945	0.22224
227.321	0.22301
227.698	0.22222
228.074	0.22413
228.45	0.22432
228.827	0.22452
229.203	0.2245
229.579	0.22408
229.955	0.2236
230.331	0.22262
230.707	0.22309
231.083	0.22408
231.46	0.22422
231.835	0.22488
232.211	0.22393
232.587	0.22325
232.963	0.22347
233.339	0.2221
233.715	0.22171
234.091	0.22206
234.466	0.22141
234.842	0.22271
235.218	0.22372
235.593	0.22479
235.969	0.22464
236.344	0.22507
236.72	0.22528
237.095	0.22469
237.471	0.22489
237.846	0.22437
238.222	0.22427
238.597	0.22391
238.972	0.22337
239.348	0.22181
239.723	0.22272
240.098	0.22152
240.473	0.22162
240.848	0.22168
241.223	0.22116
241.598	0.22113
241.973	0.22099
242.348	0.22179
242.723	0.22423
243.098	0.22421
243.473	0.22329
243.848	0.22374
244.223	0.22428
244.597	0.22651
244.972	0.22567
245.347	0.22464
245.721	0.22423
246.096	0.22501
246.47	0.22558
246.845	0.22598
247.219	0.22461
247.594	0.22489
247.968	0.22526
248.343	0.22617
248.717	0.22562
249.091	0.22493
249.466	0.22344
249.84	0.22401
250.214	0.22363
250.588	0.22245
250.962	0.22222
251.336	0.2221
251.71	0.22326
252.084	0.22432
252.458	0.22394
252.832	0.22328
253.206	0.22345
253.58	0.22309
253.954	0.22469
254.328	0.22348
254.702	0.22214
255.075	0.22246
255.449	0.22247
255.823	0.22284
256.196	0.22313
256.57	0.22093
256.943	0.22179
257.317	0.22194
257.69	0.22129
258.064	0.22238
258.437	0.22198
258.81	0.22239
259.184	0.22433
259.557	0.22386
259.93	0.22511
260.303	0.22498
260.677	0.22374
261.05	0.22371
261.423	0.22374
261.796	0.22352
262.169	0.22384
262.542	0.22329
262.915	0.22385
263.288	0.22444
263.661	0.22467
264.033	0.22391
264.406	0.22267
264.779	0.22213
265.152	0.2224
265.524	0.22176
265.897	0.22224
266.27	0.22297
266.642	0.22432
267.015	0.22503
267.387	0.22574
267.76	0.2251
268.132	0.22594
268.504	0.22478
268.877	0.22383
269.249	0.22268
269.621	0.22264
269.994	0.22301
270.366	0.22418
270.738	0.22383
271.11	0.22516
271.482	0.22514
271.854	0.22513
272.226	0.2244
272.598	0.22392
272.97	0.22257
273.342	0.22374
273.714	0.22376
274.086	0.22424
274.458	0.22396
274.829	0.22419
275.201	0.22472
275.573	0.22516
275.944	0.22417
276.316	0.22396
276.688	0.22404
277.059	0.22509
277.431	0.22473
277.802	0.22332
278.173	0.22432
278.545	0.22489
278.916	0.22556
279.287	0.22729
279.659	0.2297
280.03	0.2344
280.401	0.24024
280.772	0.24608
281.143	0.25402
281.515	0.26164
281.886	0.26832
282.257	0.27068
282.628	0.26719
282.998	0.25789
283.369	0.23602
283.74	0.20392
284.111	0.16542
284.482	0.12343
284.853	0.08495
285.223	0.05147
285.594	0.02198
285.965	0.00061
286.335	-0.01321
286.706	-0.02027
287.076	-0.02188
287.447	-0.02188
287.817	-0.02188
288.188	-0.02189
288.558	-0.02189
288.928	-0.02189
289.299	-0.02189
289.669	-0.02189
290.039	-0.02189
290.409	-0.02189
290.779	-0.02189
291.149	-0.02189
291.52	-0.02189
291.89	-0.02189
292.26	-0.02189
292.629	-0.02189
292.999	-0.02189
293.369	-0.02189
293.739	-0.02189
294.109	-0.02189
294.479	-0.02189
294.848	-0.02189
295.218	-0.02189
295.588	-0.02189
295.957	-0.02189
296.327	-0.02189
296.696	-0.02189
297.066	-0.02189
297.435	-0.02189
297.805	-0.02188
298.174	-0.02188
298.544	-0.02188
298.913	-0.02188
299.282	-0.02189
299.651	-0.02189
300.021	-0.02189
300.39	-0.02189
300.759	-0.02189
301.128	-0.02189
301.497	-0.02189
301.866	-0.02189
302.235	-0.02189
302.604	-0.02189
302.973	-0.02189
303.342	-0.02189
303.71	-0.02189
304.079	-0.02189
304.448	-0.02189
304.817	-0.02189
305.185	-0.02189
305.554	-0.02189
305.923	-0.02189
306.291	-0.02189
306.66	-0.02189
307.028	-0.0219
307.397	-0.0219
307.765	-0.0219
308.133	-0.0219
308.502	-0.0219
308.87	-0.0219
309.238	-0.0219
309.606	-0.0219
309.975	-0.02189
310.343	-0.0219
310.711	-0.02189
311.079	-0.02189
311.447	-0.02189
311.815	-0.02189
312.183	-0.02189
312.551	-0.02189
312.919	-0.02189
313.286	-0.02189
313.654	-0.02189
314.022	-0.02189
314.39	-0.02189
314.757	-0.02189
315.125	-0.02189
315.492	-0.02189
315.86	-0.02189
316.228	-0.02189
316.595	-0.02189
316.962	-0.02189
317.33	-0.02189
317.697	-0.02189
318.065	-0.02189
318.432	-0.02189
318.799	-0.02189
319.166	-0.02189
319.534	-0.02189
319.901	-0.02189
320.268	-0.02189
320.635	-0.02189
321.002	-0.02189
321.369	-0.02189
321.736	-0.0219
322.103	-0.0219
322.47	-0.0219
322.836	-0.0219
323.203	-0.0219
323.57	-0.0219
323.937	-0.0219
324.303	-0.02189
324.67	-0.02189
325.037	-0.02189
325.403	-0.02189
325.77	-0.02189
326.136	-0.02189
326.503	-0.02189
326.869	-0.02189
327.235	-0.02189
327.602	-0.02189
327.968	-0.02189
328.334	-0.02189
328.7	-0.02189
329.067	-0.02189
329.433	-0.02189
329.799	-0.02189
330.165	-0.02189
330.531	-0.02189
330.897	-0.02189
331.263	-0.02189
331.629	-0.02189
331.995	-0.02189
332.36	-0.0219
332.726	-0.0219
333.092	-0.0219
333.458	-0.02189
333.823	-0.0219
334.189	-0.02189
334.554	-0.02189
334.92	-0.02189
335.286	-0.02189
335.651	-0.02189
336.016	-0.02189
336.382	-0.02189
336.747	-0.02189
337.113	-0.02189
337.478	-0.02189
337.843	-0.02189
338.208	-0.02189
338.573	-0.02189
338.939	-0.02189
339.304	-0.02189
339.669	-0.02189
340.034	-0.02189
340.399	-0.02189
340.764	-0.02189
341.129	-0.02189
341.493	-0.02189
341.858	-0.02189
342.223	-0.02189
342.588	-0.02189
342.952	-0.02189
343.317	-0.02189
343.682	-0.02189
344.046	-0.02189
344.411	-0.02189
344.775	-0.02189
345.14	-0.02189
345.504	-0.02189
345.869	-0.02189
346.233	-0.02189
346.597	-0.02189
346.962	-0.02189
347.326	-0.02189
347.69	-0.02189
348.054	-0.02189
348.418	-0.02189
348.782	-0.02189
349.146	-0.0219
349.51	-0.0219
349.874	-0.0219
350.238	-0.0219
350.602	-0.0219
350.966	-0.0219
351.33	-0.0219
351.693	-0.0219
352.057	-0.0219
352.421	-0.0219
352.784	-0.0219
353.148	-0.02189
353.512	-0.02189
353.875	-0.02189
354.239	-0.02189
354.602	-0.02189
354.966	-0.02189
355.329	-0.02189
355.692	-0.02189
356.056	-0.02189
356.419	-0.02189
356.782	-0.02189
357.145	-0.02189
357.508	-0.02189
357.871	-0.02189
358.234	-0.02189
358.597	-0.02189
358.96	-0.02189
359.323	-0.02189
359.686	-0.02189
360.049	-0.02189
360.412	-0.02189
360.775	-0.0219
361.137	-0.0219
361.5	-0.0219
361.863	-0.0219
362.225	-0.0219
362.588	-0.02189
362.951	-0.0219
363.313	-0.02189
363.675	-0.0219
364.038	-0.02189
364.4	-0.02189
364.763	-0.02189
365.125	-0.02189
365.487	-0.02189
365.849	-0.02189
366.212	-0.02189
366.574	-0.02189
366.936	-0.02189
367.298	-0.02189
367.66	-0.02189
368.022	-0.02189
368.384	-0.02189
368.746	-0.02189
369.108	-0.02189
369.469	-0.02189
369.831	-0.02189
370.193	-0.02189
370.555	-0.02189
370.916	-0.02189
371.278	-0.02189
371.64	-0.02189
372.001	-0.02189
372.363	-0.02189
372.724	-0.02189
373.086	-0.02189
373.447	-0.02189
373.808	-0.02189
374.17	-0.02189
374.531	-0.02189
374.892	-0.0219
375.253	-0.0219
375.615	-0.0219
375.976	-0.02189
376.337	-0.02189
376.698	-0.02189
377.059	-0.02189
377.42	-0.02189
377.781	-0.02189
378.141	-0.02189
378.502	-0.02189
378.863	-0.02189
379.224	-0.02189
379.585	-0.02189
379.945	-0.02189
380.306	-0.02189
380.666	-0.02189
381.027	-0.02189
381.388	-0.02189
381.748	-0.02189
382.108	-0.0219
382.469	-0.0219
382.829	-0.0219
383.19	-0.0219
383.55	-0.0219
383.91	-0.02189
384.27	-0.02189
384.63	-0.02189
384.991	-0.02189
385.351	-0.02189
385.711	-0.02189
386.071	-0.02189
386.431	-0.02189
386.791	-0.02189
387.15	-0.0219
387.51	-0.0219
387.87	-0.0219
388.23	-0.0219
388.589	-0.0219
388.949	-0.0219
389.309	-0.02189
389.668	-0.02189
390.028	-0.02189
390.387	-0.02189
390.747	-0.02189
391.106	-0.02189
391.466	-0.02189
391.825	-0.02189
392.184	-0.02189
392.544	-0.02189
392.903	-0.02189
393.262	-0.02189
393.621	-0.0219
393.98	-0.0219
394.339	-0.0219
394.698	-0.0219
395.057	-0.0219
395.416	-0.0219
395.775	-0.0219
396.134	-0.02189
396.493	-0.02189
396.852	-0.02189
397.211	-0.02189
397.569	-0.02189
397.928	-0.02189
398.287	-0.02189
398.645	-0.02189
399.004	-0.02189
399.362	-0.02189
399.721	-0.02189
400.079	-0.02189
400.438	-0.02189
400.796	-0.02189
401.154	-0.02189
401.512	-0.02189
401.871	-0.0219
402.229	-0.0219
402.587	-0.0219
402.945	-0.0219
403.303	-0.0219
403.661	-0.0219
404.019	-0.0219
404.377	-0.0219
404.735	-0.0219
405.093	-0.0219
405.451	-0.0219
405.808	-0.0219
406.166	-0.0219
406.524	-0.0219
406.882	-0.0219
407.239	-0.0219
407.597	-0.0219
407.954	-0.0219
408.312	-0.0219
408.669	-0.0219
409.027	-0.0219
409.384	-0.02189
409.741	-0.02189
410.099	-0.02189
410.456	-0.02189
410.813	-0.02189
411.17	-0.02188
411.527	-0.02188
411.884	-0.02189
412.242	-0.02189
412.599	-0.02189
412.956	-0.02189
413.312	-0.02189
413.669	-0.02189
414.026	-0.02189
414.383	-0.02189
414.74	-0.02189
415.096	-0.02189
415.453	-0.02189
415.81	-0.02189
416.166	-0.02189
416.523	-0.0219
416.879	-0.0219
417.236	-0.0219
417.592	-0.0219
417.949	-0.0219
418.305	-0.0219
418.661	-0.0219
419.018	-0.02189
419.374	-0.02189
419.73	-0.02189
420.086	-0.02189
420.442	-0.02189
420.798	-0.02189
421.154	-0.02189
421.51	-0.02189
421.866	-0.0219
422.222	-0.0219
422.578	-0.0219
422.934	-0.02189
423.29	-0.02189
423.646	-0.02189
424.001	-0.0219
424.357	-0.0219
424.713	-0.0219
425.068	-0.0219
425.424	-0.0219
425.779	-0.0219
426.135	-0.0219
426.49	-0.0219
426.845	-0.02189
427.201	-0.0219
427.556	-0.0219
427.911	-0.0219
428.266	-0.0219
428.622	-0.02189
428.977	-0.02189
429.332	-0.02189
429.687	-0.02189
430.042	-0.02189
430.397	-0.02189
430.752	-0.02189
431.107	-0.0219
431.461	-0.0219
431.816	-0.02189
432.171	-0.02189
432.526	-0.02189
432.88	-0.02189
433.235	-0.02189
433.59	-0.02189
433.944	-0.02189
434.299	-0.02189
434.653	-0.02189
435.008	-0.02189
435.362	-0.02189
435.716	-0.02189
436.071	-0.02189
436.425	-0.02189
436.779	-0.02189
437.133	-0.02189
437.487	-0.02189
437.841	-0.02189
438.195	-0.02189
438.549	-0.02189
438.903	-0.02189
439.257	-0.0219
439.611	-0.0219
439.965	-0.0219
440.319	-0.0219
440.673	-0.0219
441.026	-0.02189
441.38	-0.02189
441.734	-0.02189
442.087	-0.02189
442.441	-0.02189
442.794	-0.02189
443.148	-0.02189
443.501	-0.02189
443.855	-0.02189
444.208	-0.02189
444.561	-0.02189
444.915	-0.0219
445.268	-0.02189
445.621	-0.02189
445.974	-0.02189
446.327	-0.02189
446.68	-0.02189
447.033	-0.02189
447.386	-0.02189
447.739	-0.02189
448.092	-0.02189
448.445	-0.0219
448.798	-0.02189
449.15	-0.02189
449.503	-0.02189
449.856	-0.02189
450.209	-0.02189
450.561	-0.02189
450.914	-0.02189
451.266	-0.02189
451.619	-0.02189
451.971	-0.02189
452.323	-0.02189
452.676	-0.02189
453.028	-0.02189
453.38	-0.02189
453.733	-0.02189
454.085	-0.02189
454.437	-0.02189
454.789	-0.02189
455.141	-0.0219
455.493	-0.0219
455.845	-0.0219
456.197	-0.0219
456.549	-0.0219
456.901	-0.0219
457.253	-0.0219
457.604	-0.0219
457.956	-0.0219
458.308	-0.0219
458.659	-0.02189
459.011	-0.02189
459.362	-0.0219
459.714	-0.02189
460.065	-0.02189
460.417	-0.02189
460.768	-0.02189
461.12	-0.02189
461.471	-0.02189
461.822	-0.02189
462.173	-0.02189
462.525	-0.02189
462.876	-0.02189
463.227	-0.02189
463.578	-0.02189
463.929	-0.02189
464.28	-0.02189
464.631	-0.02189
464.982	-0.02189
465.332	-0.0219
465.683	-0.02189
466.034	-0.02189
466.385	-0.02189
466.735	-0.02189
467.086	-0.02189
467.437	-0.0219
467.787	-0.02189
468.138	-0.02189
468.488	-0.02189
468.839	-0.02189
469.189	-0.02189
469.539	-0.02189
469.89	-0.02189
470.24	-0.02189
470.59	-0.02189
470.94	-0.02189
471.29	-0.0219
471.64	-0.0219
471.99	-0.0219
472.34	-0.0219
472.69	-0.0219
473.04	-0.0219
473.39	-0.0219
473.74	-0.02189
474.09	-0.02189
474.439	-0.02189
474.789	-0.02189
475.139	-0.02189
475.488	-0.02189
475.838	-0.02189
476.188	-0.0219
476.537	-0.0219
476.886	-0.02189
477.236	-0.0219
477.585	-0.02189
477.935	-0.02189
478.284	-0.02189
478.633	-0.02189
478.982	-0.02189
479.331	-0.02189
479.68	-0.02189
480.03	-0.02189
480.379	-0.0219
480.728	-0.0219
481.076	-0.0219
481.425	-0.0219
481.774	-0.0219
482.123	-0.0219
482.472	-0.0219
482.821	-0.0219
483.169	-0.0219
483.518	-0.0219
483.866	-0.0219
484.215	-0.0219
484.563	-0.0219
484.912	-0.0219
485.26	-0.0219
485.609	-0.0219
485.957	-0.0219
486.305	-0.0219
486.654	-0.0219
487.002	-0.02189
487.35	-0.02189
487.698	-0.02189
488.046	-0.02189
488.394	-0.02189
488.742	-0.02189
489.09	-0.02189
489.438	-0.02189
489.786	-0.02189
490.134	-0.02189
490.482	-0.02189
490.829	-0.02189
491.177	-0.02189
491.525	-0.02189
491.872	-0.02189
492.22	-0.02189
492.567	-0.02189
492.915	-0.02189
493.262	-0.02189
493.61	-0.02189
493.957	-0.02189
494.304	-0.02189
494.652	-0.02189
494.999	-0.0219
495.346	-0.0219
495.693	-0.0219
496.04	-0.0219
496.387	-0.0219
496.734	-0.0219
497.081	-0.0219
497.428	-0.0219
497.775	-0.0219
498.122	-0.0219
498.469	-0.0219
498.816	-0.0219
499.162	-0.02189
499.509	-0.02189
499.856	-0.02189
500.202	-0.02189
500.549	-0.02189
500.895	-0.02189
501.242	-0.02189
501.588	-0.02189
501.935	-0.02189
502.281	-0.0219
502.627	-0.0219
502.973	-0.02189
503.32	-0.02189
503.666	-0.02189
504.012	-0.0219
504.358	-0.02189
504.704	-0.0219
505.05	-0.0219
505.396	-0.0219
505.742	-0.0219
506.088	-0.0219
506.433	-0.0219
506.779	-0.0219
507.125	-0.0219
507.471	-0.0219
507.816	-0.0219
508.162	-0.0219
508.507	-0.0219
508.853	-0.0219
509.198	-0.02189
509.544	-0.02189
509.889	-0.02189
510.234	-0.02189
510.58	-0.02189
510.925	-0.02189
511.27	-0.02189
511.615	-0.02189
511.96	-0.02189
512.306	-0.0219
512.651	-0.02189
512.996	-0.02189
513.341	-0.02189
513.685	-0.0219
514.03	-0.0219
514.375	-0.0219
514.72	-0.0219
515.065	-0.0219
515.409	-0.0219
515.754	-0.0219
516.099	-0.0219
516.443	-0.0219
516.788	-0.02189
517.132	-0.02189
517.476	-0.02189
517.821	-0.02189
518.165	-0.02189
518.51	-0.0219
518.854	-0.02189
519.198	-0.02189
519.542	-0.02189
519.886	-0.0219
520.23	-0.02189
520.574	-0.02189
520.918	-0.02189
521.262	-0.02189
521.606	-0.02189
521.95	-0.02189
522.294	-0.02189
522.638	-0.02189
522.981	-0.02189
523.325	-0.02189
523.669	-0.0219
524.012	-0.0219
524.356	-0.0219
524.699	-0.0219
525.043	-0.0219
525.386	-0.0219
525.73	-0.02191
526.073	-0.02191
526.416	-0.02191
526.76	-0.02191
527.103	-0.02191
527.446	-0.02191
527.789	-0.02191
528.132	-0.02189
528.475	-0.0219
528.818	-0.0219
529.161	-0.02189
529.504	-0.02189
529.847	-0.02189
530.19	-0.02189
530.532	-0.02189
530.875	-0.02189
531.218	-0.02189
531.56	-0.02189
531.903	-0.02189
532.246	-0.02189
532.588	-0.02189
532.93	-0.02189
533.273	-0.02189
533.615	-0.02189
533.958	-0.02189
534.3	-0.02189
534.642	-0.02189
534.984	-0.0219
535.326	-0.0219
535.669	-0.0219
536.011	-0.0219
536.353	-0.0219
536.695	-0.0219
537.037	-0.0219
537.378	-0.0219
537.72	-0.0219
538.062	-0.0219
538.404	-0.0219
538.746	-0.0219
539.087	-0.0219
539.429	-0.0219
539.77	-0.0219
540.112	-0.0219
540.454	-0.0219
540.795	-0.0219
541.136	-0.02189
541.478	-0.02189
541.819	-0.02189
542.16	-0.02189
542.502	-0.02189
542.843	-0.02189
543.184	-0.0219
543.525	-0.02189
543.866	-0.0219
544.207	-0.0219
544.548	-0.0219
544.889	-0.0219
545.23	-0.0219
545.571	-0.0219
545.911	-0.0219
546.252	-0.0219
546.593	-0.0219
546.934	-0.02189
547.274	-0.0219
547.615	-0.0219
547.955	-0.0219
548.296	-0.0219
548.636	-0.02189
548.977	-0.02189
549.317	-0.0219
549.657	-0.0219
549.997	-0.02189
550.338	-0.02189
550.678	-0.02189
551.018	-0.02189
551.358	-0.02189
551.698	-0.02189
552.038	-0.02189
552.378	-0.02189
552.718	-0.02189
553.058	-0.02189
553.398	-0.02189
553.737	-0.0219
554.077	-0.02189
554.417	-0.02189
554.756	-0.02189
555.096	-0.02189
555.435	-0.02189
555.775	-0.02189
556.114	-0.02189
556.454	-0.02189
556.793	-0.0219
557.133	-0.0219
557.472	-0.0219
557.811	-0.0219
558.15	-0.0219
558.489	-0.0219
558.829	-0.0219
559.168	-0.0219
559.507	-0.0219
559.846	-0.0219
560.184	-0.0219
560.523	-0.0219
560.862	-0.02189
561.201	-0.02189
561.54	-0.02189
561.878	-0.02189
562.217	-0.0219
562.556	-0.0219
562.894	-0.02189
563.233	-0.0219
563.571	-0.0219
563.91	-0.02189
564.248	-0.02189
564.586	-0.02189
564.925	-0.02189
565.263	-0.02189
565.601	-0.02189
565.939	-0.02189
566.277	-0.02189
566.616	-0.02189
566.954	-0.02189
567.292	-0.02189
567.63	-0.02189
567.967	-0.0219
568.305	-0.0219
568.643	-0.0219
568.981	-0.0219
569.319	-0.0219
569.656	-0.0219
569.994	-0.0219
570.331	-0.0219
570.669	-0.0219
571.006	-0.0219
571.344	-0.0219
571.681	-0.02189
572.019	-0.02189
572.356	-0.02189
572.693	-0.02189
573.03	-0.02189
573.368	-0.02189
573.705	-0.02189
574.042	-0.02189
574.379	-0.02189
574.716	-0.02189
575.053	-0.02189
575.39	-0.02189
575.727	-0.02189
576.063	-0.02189
576.4	-0.0219
576.737	-0.0219
577.074	-0.02189
577.41	-0.02189
577.747	-0.0219
578.083	-0.02189
578.42	-0.0219
578.756	-0.02189
579.093	-0.02189
579.429	-0.02189
579.766	-0.0219
580.102	-0.02189
580.438	-0.02189
580.774	-0.02189
581.11	-0.02189
581.446	-0.02189
581.782	-0.02189
582.119	-0.02189
582.454	-0.02189
582.79	-0.02189
583.126	-0.02189
583.462	-0.02189
583.798	-0.0219
584.134	-0.0219
584.469	-0.0219
584.805	-0.0219
585.141	-0.0219
585.476	-0.0219
585.812	-0.0219
586.147	-0.0219
586.482	-0.0219
586.818	-0.0219
587.153	-0.0219
587.488	-0.0219
587.824	-0.0219
588.159	-0.0219
588.494	-0.0219
588.829	-0.0219
589.164	-0.0219
589.499	-0.02189
589.834	-0.0219
590.169	-0.0219
590.504	-0.0219
590.839	-0.02189
591.174	-0.02189
591.508	-0.02189
591.843	-0.0219
592.178	-0.0219
592.512	-0.0219
592.847	-0.0219
593.181	-0.0219
593.516	-0.0219
593.85	-0.0219
594.185	-0.0219
594.519	-0.0219
594.853	-0.0219
595.187	-0.0219
595.522	-0.0219
595.856	-0.0219
596.19	-0.0219
596.524	-0.02189
596.858	-0.02189
597.192	-0.02189
597.526	-0.02189
597.86	-0.02189
598.194	-0.02189
598.527	-0.02189
598.861	-0.0219
599.195	-0.0219
599.528	-0.0219
599.862	-0.0219
600.196	-0.0219
600.529	-0.0219
600.863	-0.0219
601.196	-0.0219
601.529	-0.0219
601.863	-0.0219
602.196	-0.0219
602.529	-0.0219
602.862	-0.0219
603.196	-0.0219
603.529	-0.0219
603.862	-0.0219
604.195	-0.0219
604.528	-0.0219
604.861	-0.0219
605.193	-0.02189
605.526	-0.02189
605.859	-0.02189
606.192	-0.02189
606.524	-0.02189
606.857	-0.02189
607.19	-0.0219
607.522	-0.0219
607.855	-0.0219
608.187	-0.0219
608.52	-0.0219
608.852	-0.0219
609.184	-0.02189
609.517	-0.02189
609.849	-0.02189
610.181	-0.02189
610.513	-0.02189
610.845	-0.02189
611.177	-0.02189
611.509	-0.02189
611.841	-0.0219
612.173	-0.0219
612.505	-0.0219
612.837	-0.0219
613.169	-0.0219
613.5	-0.0219
613.832	-0.02189
614.164	-0.02189
614.495	-0.02189
614.827	-0.02189
615.158	-0.0219
615.49	-0.02189
615.821	-0.0219
616.152	-0.0219
616.484	-0.0219
616.815	-0.0219
617.146	-0.0219
617.477	-0.0219
617.808	-0.0219
618.14	-0.0219
618.471	-0.02189
618.802	-0.02189
619.133	-0.02189
619.463	-0.02189
619.794	-0.02189
620.125	-0.02189
620.456	-0.02189
620.787	-0.02189
621.117	-0.02189
621.448	-0.02189
621.778	-0.02189
622.109	-0.02189
622.439	-0.02189
622.77	-0.02189
623.1	-0.02189
623.43	-0.0219
623.761	-0.0219
624.091	-0.0219
624.421	-0.0219
624.751	-0.0219
625.081	-0.0219
625.412	-0.0219
625.742	-0.02189
626.072	-0.02189
626.401	-0.02189
626.731	-0.02189
627.061	-0.02189
627.391	-0.02189
627.721	-0.02189
628.05	-0.02189
628.38	-0.02189
628.71	-0.02189
629.039	-0.02189
629.369	-0.02189
629.698	-0.02189
630.028	-0.02189
630.357	-0.02189
630.686	-0.02189
631.015	-0.02189
631.345	-0.02189
631.674	-0.02189
632.003	-0.02189
632.332	-0.02189
632.661	-0.02189
632.99	-0.02189
633.319	-0.02189
633.648	-0.02189
633.977	-0.02189
634.306	-0.02189
634.634	-0.02189
634.963	-0.02189
635.292	-0.02189
635.62	-0.02189
635.949	-0.02189
636.277	-0.02189
636.606	-0.02189
636.934	-0.02189
637.263	-0.02189
637.591	-0.02189
637.919	-0.02189
638.248	-0.0219
638.576	-0.0219
638.904	-0.0219
639.232	-0.0219
639.56	-0.0219
639.888	-0.0219
640.216	-0.0219
640.544	-0.02189
640.872	-0.0219
641.2	-0.02189
641.528	-0.0219
641.855	-0.0219
642.183	-0.0219
642.511	-0.0219
642.838	-0.0219
643.166	-0.0219
643.493	-0.0219
643.821	-0.0219
644.148	-0.0219
644.475	-0.0219
644.803	-0.02189
645.13	-0.02189
645.457	-0.0219
645.784	-0.0219
646.112	-0.0219
646.439	-0.0219
646.766	-0.0219
647.093	-0.0219
647.42	-0.02189
647.746	-0.02189
648.073	-0.02189
648.4	-0.02189
648.727	-0.02189
649.053	-0.02189
649.38	-0.0219
649.707	-0.0219
650.033	-0.02189
650.36	-0.0219
650.686	-0.02189
651.013	-0.02189
651.339	-0.02189
651.665	-0.02189
651.992	-0.02189
652.318	-0.02189
652.644	-0.02189
652.97	-0.02189
653.296	-0.02189
653.622	-0.02189
653.948	-0.02189
654.274	-0.02189
654.6	-0.02189
654.926	-0.02189
655.252	-0.02189
655.578	-0.02189
655.903	-0.02189
656.229	-0.02189
656.555	-0.02189
656.88	-0.02189
657.206	-0.02189
657.531	-0.02189
657.857	-0.0219
658.182	-0.0219
658.507	-0.0219
658.833	-0.0219
659.158	-0.0219
659.483	-0.0219
659.808	-0.02189
660.133	-0.02189
660.458	-0.02189
660.783	-0.02189
661.108	-0.02189
661.433	-0.02189
661.758	-0.02189
662.083	-0.02189
662.408	-0.02189
662.732	-0.02189
663.057	-0.02189
663.382	-0.02189
663.706	-0.02189
664.031	-0.02189
664.355	-0.02189
664.68	-0.02189
665.004	-0.02189
665.328	-0.02189
665.653	-0.02189
665.977	-0.0219
666.301	-0.0219
666.625	-0.02189
666.949	-0.0219
667.273	-0.0219
667.597	-0.0219
667.921	-0.0219
668.245	-0.0219
668.569	-0.0219
668.893	-0.0219
669.217	-0.0219
669.54	-0.0219
669.864	-0.02189
670.188	-0.02189
670.511	-0.0219
670.835	-0.0219
671.158	-0.0219
671.482	-0.0219
671.805	-0.0219
672.128	-0.0219
672.452	-0.0219
672.775	-0.0219
673.098	-0.02189
673.421	-0.02189
673.744	-0.02189
674.068	-0.02189
674.391	-0.02189
674.714	-0.02189
675.036	-0.02189
675.359	-0.02189
675.682	-0.02189
676.005	-0.0219
676.328	-0.02189
676.65	-0.02189
676.973	-0.02189
677.295	-0.02189
677.618	-0.02189
677.94	-0.0219
678.263	-0.02189
678.585	-0.02189
678.908	-0.02189
679.23	-0.02189
679.552	-0.02189
679.874	-0.02189
680.196	-0.02189
680.519	-0.02189
680.841	-0.02189
681.163	-0.02189
681.485	-0.02189
681.807	-0.02189
682.128	-0.02189
682.45	-0.02189
682.772	-0.02189
683.094	-0.02189
683.415	-0.02189
683.737	-0.02189
684.059	-0.02189
684.38	-0.02189
684.702	-0.02189
685.023	-0.02189
685.344	-0.02189
685.666	-0.02189
685.987	-0.02189
686.308	-0.02189
686.629	-0.02189
686.95	-0.02189
687.272	-0.02189
687.593	-0.02189
687.914	-0.02189
688.235	-0.02189
688.555	-0.02189
688.876	-0.02189
689.197	-0.02189
689.518	-0.0219
689.839	-0.02189
690.159	-0.02189
690.48	-0.02189
690.8	-0.02189
691.121	-0.02189
691.441	-0.02189
691.762	-0.02188
692.082	-0.02189
692.402	-0.02189
692.723	-0.02189
693.043	-0.02189
693.363	-0.02189
693.683	-0.02189
694.003	-0.02189
694.323	-0.02189
694.643	-0.02189
694.963	-0.02189
695.283	-0.02189
695.603	-0.02189
695.923	-0.02189
696.243	-0.02189
696.562	-0.02189
696.882	-0.02189
697.202	-0.02189
697.521	-0.0219
697.841	-0.02189
698.16	-0.02189
698.479	-0.02189
698.799	-0.02189
699.118	-0.02189
699.437	-0.0219
699.757	-0.02189
700.076	-0.02189
700.395	-0.02189
700.714	-0.02189
701.033	-0.02189
701.352	-0.02189
701.671	-0.02189
701.99	-0.02189
702.308	-0.02189
702.627	-0.0219
702.946	-0.0219
703.265	-0.0219
703.583	-0.0219
703.902	-0.0219
704.22	-0.0219
704.539	-0.02189
704.857	-0.02189
705.176	-0.02189
705.494	-0.02189
705.812	-0.02189
706.131	-0.02189
706.449	-0.02189
706.767	-0.02189
707.085	-0.02189
707.403	-0.02189
707.721	-0.0219
708.039	-0.02189
708.357	-0.0219
708.675	-0.0219
708.993	-0.0219
709.31	-0.02189
709.628	-0.02189
709.946	-0.02189
710.263	-0.02189
710.581	-0.02189
710.898	-0.02189
711.216	-0.02189
711.533	-0.02189
711.851	-0.02189
712.168	-0.02189
712.485	-0.02189
712.802	-0.02189
713.12	-0.02189
713.437	-0.02189
713.754	-0.02189
714.071	-0.02189
714.388	-0.02189
714.705	-0.02189
715.022	-0.02189
715.338	-0.02189
715.655	-0.0219
715.972	-0.02189
716.289	-0.02189
716.605	-0.02189
716.922	-0.02189
717.238	-0.02189
717.555	-0.02189
717.871	-0.02189
718.188	-0.02189
718.504	-0.02189
718.82	-0.02189
719.136	-0.02189
719.453	-0.02189
719.769	-0.02189
720.085	-0.02189
720.401	-0.02189
720.717	-0.02189
721.033	-0.02189
721.349	-0.02189
721.665	-0.02189
721.98	-0.02189
722.296	-0.02189
722.612	-0.02189
722.927	-0.02189
723.243	-0.02189
723.559	-0.02189
723.874	-0.02189
724.19	-0.02189
724.505	-0.02189
724.82	-0.02189
725.136	-0.02189
725.451	-0.02189
725.766	-0.02189
726.081	-0.02189
726.396	-0.02189
726.711	-0.02189
727.026	-0.02189
727.341	-0.02189
727.656	-0.02189
727.971	-0.02189
728.286	-0.02189
728.601	-0.0219
728.916	-0.02189
729.23	-0.02189
729.545	-0.02189
729.859	-0.0219
730.174	-0.0219
730.488	-0.02189
730.803	-0.02189
731.117	-0.02189
731.431	-0.02189
731.746	-0.02189
732.06	-0.02189
732.374	-0.02189
732.688	-0.0219
733.002	-0.02189
733.316	-0.0219
733.63	-0.02189
733.944	-0.02189
734.258	-0.02189
734.572	-0.02189
734.886	-0.02189
735.199	-0.02189
735.513	-0.02189
735.827	-0.02189
736.14	-0.02189
736.454	-0.02189
736.767	-0.02189
737.081	-0.0219
737.394	-0.0219
737.708	-0.0219
738.021	-0.0219
738.334	-0.0219
738.647	-0.0219
738.96	-0.0219
739.273	-0.0219
739.587	-0.0219
739.9	-0.02189
740.212	-0.02189
740.525	-0.02189
740.838	-0.02189
741.151	-0.02189
741.464	-0.02189
741.776	-0.02189
742.089	-0.0219
742.402	-0.0219
742.714	-0.02189
743.027	-0.02189
743.339	-0.02189
743.651	-0.02189
743.964	-0.02189
744.276	-0.02189
744.588	-0.02189
744.901	-0.02189
745.213	-0.02189
745.525	-0.02189
745.837	-0.02189
746.149	-0.02189
746.461	-0.02189
746.773	-0.02189
747.085	-0.02189
747.396	-0.0219
747.708	-0.0219
748.02	-0.0219
748.331	-0.0219
748.643	-0.0219
748.955	-0.0219
749.266	-0.0219
749.577	-0.0219
749.889	-0.0219
750.2	-0.0219
750.512	-0.02189
750.823	-0.02189
751.134	-0.02189
751.445	-0.02189
751.756	-0.02189
752.067	-0.02189
752.378	-0.02189
752.689	-0.02189
753	-0.02189
753.311	-0.02189
753.622	-0.02189
753.932	-0.02189
754.243	-0.02189
754.554	-0.02189
754.864	-0.02189
755.175	-0.0219
755.485	-0.02189
755.796	-0.02189
756.106	-0.0219
756.417	-0.0219
756.727	-0.0219
757.037	-0.0219
757.347	-0.0219
757.658	-0.0219
757.968	-0.02189
758.278	-0.02189
758.588	-0.02189
758.898	-0.02189
759.208	-0.02189
759.517	-0.02189
759.827	-0.02189
760.137	-0.02189
760.447	-0.02189
760.756	-0.02189
761.066	-0.02189
761.375	-0.02189
761.685	-0.02189
761.994	-0.02189
762.304	-0.02189
762.613	-0.02189
762.922	-0.0219
763.232	-0.02189
763.541	-0.02189
763.85	-0.02189
764.159	-0.02189
764.468	-0.02189
764.777	-0.02189
765.086	-0.02189
765.395	-0.02189
765.704	-0.02189
766.013	-0.02189
766.321	-0.0219
766.63	-0.02189
766.939	-0.0219
767.247	-0.0219
767.556	-0.0219
767.864	-0.02189
768.173	-0.02189
768.481	-0.02189
768.789	-0.0219
769.098	-0.02189
769.406	-0.02189
769.714	-0.02189
770.022	-0.02189
770.33	-0.02189
770.638	-0.02189
770.946	-0.02189
771.254	-0.02189
771.562	-0.02189
771.87	-0.02189
772.178	-0.02189
772.486	-0.02189
772.793	-0.02189
773.101	-0.02189
773.408	-0.02189
773.716	-0.02189
774.023	-0.02189
774.331	-0.02189
774.638	-0.02189
774.946	-0.02189
775.253	-0.02188
775.56	-0.02188
775.867	-0.02188
776.174	-0.02188
776.481	-0.02188
776.788	-0.02188
777.095	-0.02188
777.402	-0.02189
777.709	-0.02189
778.016	-0.02189
778.323	-0.02189
778.63	-0.02189
778.936	-0.02189
779.243	-0.02189
779.549	-0.02188
779.856	-0.02188
780.162	-0.02188
780.469	-0.02188
780.775	-0.02189
781.082	-0.02189
781.388	-0.02189
781.694	-0.02189
782	-0.02189
782.306	-0.02189
782.612	-0.02189
782.918	-0.02189
783.224	-0.02189
783.53	-0.02189
783.836	-0.02189
784.142	-0.0219
784.448	-0.0219
784.753	-0.02189
785.059	-0.0219
785.365	-0.02189
785.67	-0.02189
785.976	-0.02189
786.281	-0.02189
786.586	-0.02189
786.892	-0.02189
787.197	-0.02189
787.502	-0.02189
787.808	-0.02189
788.113	-0.02189
788.418	-0.02189
788.723	-0.02189
789.028	-0.02189
789.333	-0.02189
789.638	-0.02189
789.942	-0.02189
790.247	-0.02189
790.552	-0.02189
790.857	-0.02189
791.161	-0.02189
791.466	-0.02189
791.77	-0.02189
792.075	-0.02189
792.379	-0.02189
792.684	-0.02189
792.988	-0.02189
793.292	-0.02189
793.597	-0.02189
793.901	-0.02189
794.205	-0.02189
794.509	-0.02189
794.813	-0.02189
795.117	-0.02189
795.421	-0.02189
795.725	-0.02189
796.029	-0.02189
796.332	-0.02189
796.636	-0.02189
796.94	-0.02189
797.243	-0.02189
797.547	-0.02189
797.85	-0.02189
798.154	-0.02189
798.457	-0.0219
798.761	-0.0219
799.064	-0.02189
799.367	-0.02189
799.67	-0.02189
799.973	-0.02189
800.277	-0.02189
800.58	-0.02189
800.883	-0.02189
801.186	-0.02189
801.488	-0.02189
801.791	-0.02189
802.094	-0.02189
802.397	-0.0219
802.699	-0.0219
803.002	-0.0219
803.305	-0.0219
803.607	-0.02189
803.91	-0.02189
804.212	-0.02189
804.515	-0.02189
804.817	-0.02189
805.119	-0.02189
805.421	-0.02189
805.724	-0.02189
806.026	-0.02189
806.328	-0.02189
806.63	-0.02189
806.932	-0.02189
807.234	-0.02189
807.535	-0.02189
807.837	-0.02189
808.139	-0.02189
808.441	-0.02189
808.742	-0.02189
809.044	-0.02189
809.346	-0.02189
809.647	-0.02189
809.948	-0.02189
810.25	-0.02189
810.551	-0.02189
810.853	-0.02189
811.154	-0.02189
811.455	-0.02189
811.756	-0.02189
812.057	-0.0219
812.358	-0.02189
812.659	-0.0219
812.96	-0.0219
813.261	-0.0219
813.562	-0.02189
813.863	-0.02189
814.163	-0.02189
814.464	-0.02189
814.765	-0.02189
815.065	-0.02189
815.366	-0.02189
815.666	-0.02189
815.967	-0.02189
816.267	-0.02189
816.567	-0.02189
816.868	-0.02189
817.168	-0.02189
817.468	-0.02189
817.768	-0.02189
818.068	-0.02189
818.368	-0.02189
818.668	-0.02189
818.968	-0.02189
819.268	-0.02189
819.568	-0.02189
819.867	-0.02189
820.167	-0.02189
820.467	-0.02189
820.766	-0.02189
821.066	-0.0216
821.365	-0.02121
821.665	-0.02036
821.964	-0.01906
822.263	-0.01786
822.563	-0.0155
822.862	-0.01287
823.161	-0.01043
823.46	-0.00782
823.759	-0.00528
824.058	-0.00304
824.357	-0.00013
824.656	0.00267
824.955	0.00544
825.254	0.00869
825.552	0.01173
825.851	0.01454
826.15	0.01846
826.448	0.02252
826.747	0.02604
827.045	0.0292
827.344	0.03242
827.642	0.03608
827.941	0.04072
828.239	0.04533
828.537	0.05013
828.835	0.05488
829.133	0.05972
829.432	0.06458
829.73	0.07051
830.028	0.07601
830.325	0.08052
830.623	0.08403
830.921	0.08815
831.219	0.09199
831.517	0.0964
831.814	0.09958
832.112	0.10242
832.409	0.10594
832.707	0.10936
833.004	0.11191
833.302	0.11566
833.599	0.11854
833.896	0.12198
834.194	0.12561
834.491	0.12795
834.788	0.13115
835.085	0.13438
835.382	0.13675
835.679	0.13955
835.976	0.14112
836.273	0.1428
836.57	0.14462
836.866	0.14616
837.163	0.14746
837.46	0.14917
837.756	0.14976
838.053	0.15127
838.349	0.15153
838.646	0.15229
838.942	0.15293
839.239	0.15317
839.535	0.15388
839.831	0.15483
840.127	0.15544
840.423	0.15687
840.72	0.15743
841.016	0.15862
841.312	0.16008
841.607	0.16106
841.903	0.16151
842.199	0.16162
842.495	0.16208
842.791	0.16395
843.086	0.16378
843.382	0.16527
843.677	0.1658
843.973	0.16709
844.268	0.16839
844.564	0.16911
844.859	0.16968
845.154	0.17143
845.45	0.17138
845.745	0.17333
846.04	0.17508
846.335	0.17666
846.63	0.17776
846.925	0.17887
847.22	0.18055
847.515	0.18214
847.81	0.18324
848.104	0.18486
848.399	0.18587
848.694	0.18896
848.988	0.19084
849.283	0.19358
849.578	0.19605
849.872	0.19892
850.166	0.20361
850.461	0.20851
850.755	0.2106
851.049	0.21668
851.343	0.22137
851.638	0.22671
851.932	0.23162
852.226	0.23498
852.52	0.24221
852.814	0.25054
853.107	0.25478
853.401	0.26116
853.695	0.26987
853.989	0.27529
854.282	0.2803
854.576	0.28988
854.869	0.29989
855.163	0.3084
855.456	0.32388
855.75	0.33806
856.043	0.36137
856.336	0.38492
856.63	0.39928
856.923	0.42309
857.216	0.45236
857.509	0.46257
857.802	0.49404
858.095	0.51637
858.388	0.55037
858.681	0.5785
858.974	0.61429
859.266	0.65714
859.559	0.71299
859.852	0.74086
860.144	0.81327
860.437	0.88188
860.729	1.00793
861.022	1.08582
861.314	1.18424
861.606	1.43384
861.899	2.41035
862.191	-0
862.483	-0
862.775	-0
863.067	-0
863.359	-0
863.651	-0
863.943	-0
864.235	-0
864.527	-0
864.819	-0
865.11	-0
865.402	-0
865.693	-0
865.985	-0
866.276	-0
866.568	-0
866.859	-0
867.151	-0
867.442	-0
867.733	-0
868.024	-0
868.315	-0
868.606	-0
868.897	-0
869.188	-0
869.479	-0
869.77	-0
870.061	-0
870.351	-0
870.642	-0
870.933	-0
871.223	-0
871.514	-0
871.804	-0
872.095	-0
872.385	-0
872.675	-0
