Data from no-cure_0cb_Relative_16-11-47-813.txt Node
Date: Fri Aug 18 16:11:47 EDT 2023
User: UV-vis
Spectrometer: FLMS04918
Trigger mode: 0
Integration Time (sec): 1.000000E-1
Scans to average: 3
Electric dark correction enabled: true
Nonlinearity correction enabled: false
Boxcar width: 3
XAxis mode: Wavelengths
Number of Pixels in Spectrum: 2048
>>>>>Begin Spectral Data<<<<<
179.23	4.11043
179.611	-8.10226
179.992	0.89415
180.373	-5.10082
180.754	-8.20789
181.134	-3.02922
181.515	-10.04351
181.896	-9.82672
182.276	21.73579
182.657	-0.79365
183.038	26.49219
183.418	105.3916
183.799	1215.4321
184.179	-136.0554
184.56	-141.96217
184.94	-3.69863
185.32	41.86691
185.701	16.22058
186.081	82.25209
186.461	58.26245
186.842	57.10157
187.222	57.46527
187.602	57.90951
187.982	57.7002
188.362	57.83307
188.742	58.04854
189.122	58.13325
189.502	58.18773
189.882	58.208
190.262	58.12095
190.642	58.18575
191.022	58.29779
191.402	58.05792
191.781	58.19433
192.161	58.22153
192.541	58.13949
192.92	58.2899
193.3	58.19946
193.68	58.02467
194.059	57.98685
194.439	58.03516
194.818	58.00718
195.198	58.04208
195.577	58.00823
195.957	58.16554
196.336	58.23448
196.715	58.45793
197.094	58.34134
197.474	58.29451
197.853	58.18878
198.232	58.04472
198.611	57.94009
198.99	58.01809
199.369	57.89694
199.748	57.7759
200.127	57.91926
200.506	58.02058
200.885	58.17474
201.264	58.24596
201.643	58.14434
202.022	58.3185
202.401	58.42238
202.779	58.38464
203.158	58.21791
203.537	58.08057
203.915	58.01853
204.294	57.96516
204.673	57.86075
205.051	57.76977
205.43	57.70955
205.808	57.81655
206.187	57.87014
206.565	57.91213
206.943	57.96772
207.322	57.88277
207.7	58.08014
208.078	58.09288
208.456	58.29424
208.835	58.21691
209.213	58.18233
209.591	58.10447
209.969	58.2438
210.347	58.09928
210.725	58.17719
211.103	58.01068
211.481	58.05633
211.859	58.19213
212.237	58.3148
212.614	58.31427
212.992	58.31229
213.37	58.49319
213.748	58.71518
214.125	58.67812
214.503	58.62094
214.881	58.67329
215.258	58.50761
215.636	58.52
216.013	58.45573
216.391	58.26128
216.768	58.33406
217.145	58.35112
217.523	58.33347
217.9	58.37851
218.277	58.40938
218.655	58.14363
219.032	58.34325
219.409	58.33517
219.786	58.18053
220.163	58.19973
220.54	58.28188
220.917	58.20303
221.294	58.36669
221.671	58.20696
222.048	58.14375
222.425	58.28416
222.802	58.28728
223.179	58.3369
223.556	58.3681
223.932	58.25052
224.309	58.30821
224.686	58.39844
225.062	58.35132
225.439	58.38638
225.815	58.26188
226.192	58.25278
226.568	58.27367
226.945	58.20508
227.321	58.30136
227.698	58.35698
228.074	58.45079
228.45	58.41869
228.827	58.46993
229.203	58.47996
229.579	58.53086
229.955	58.48247
230.331	58.53876
230.707	58.39807
231.083	58.47162
231.46	58.35853
231.835	58.45103
232.211	58.42934
232.587	58.41257
232.963	58.24267
233.339	58.25412
233.715	58.10078
234.091	58.20882
234.466	58.23821
234.842	58.18947
235.218	58.14058
235.593	58.23908
235.969	58.13347
236.344	58.45132
236.72	58.55228
237.095	58.5611
237.471	58.69392
237.846	58.76847
238.222	58.79205
238.597	58.73275
238.972	58.60324
239.348	58.45601
239.723	58.44441
240.098	58.37921
240.473	58.32125
240.848	58.3681
241.223	58.57865
241.598	58.52911
241.973	58.71607
242.348	58.97723
242.723	59.05503
243.098	58.97654
243.473	58.92239
243.848	58.87191
244.223	59.04473
244.597	58.99223
244.972	58.62435
245.347	58.6997
245.721	58.79873
246.096	58.81998
246.47	58.87263
246.845	58.63747
247.219	58.57973
247.594	58.84621
247.968	58.83306
248.343	58.7691
248.717	58.79928
249.091	58.75684
249.466	58.87742
249.84	58.98253
250.214	58.81239
250.588	58.64856
250.962	58.70008
251.336	58.66592
251.71	58.82288
252.084	58.95038
252.458	58.98245
252.832	58.87656
253.206	58.96123
253.58	58.85014
253.954	58.81905
254.328	58.84972
254.702	58.72019
255.075	58.55656
255.449	58.58024
255.823	58.54728
256.196	58.62026
256.57	58.69952
256.943	58.55405
257.317	58.58563
257.69	58.65472
258.064	58.72402
258.437	58.81065
258.81	58.84876
259.184	58.86685
259.557	58.80251
259.93	58.68455
260.303	58.49903
260.677	58.53679
261.05	58.43513
261.423	58.39705
261.796	58.35384
262.169	58.44754
262.542	58.42706
262.915	58.58926
263.288	58.56866
263.661	58.63298
264.033	58.65487
264.406	58.638
264.779	58.66479
265.152	58.85004
265.524	58.87492
265.897	58.937
266.27	58.87494
266.642	58.86499
267.015	58.91419
267.387	58.89259
267.76	58.8816
268.132	58.93256
268.504	58.89537
268.877	59.04628
269.249	59.19055
269.621	59.10813
269.994	59.2317
270.366	59.17845
270.738	59.11571
271.11	59.20606
271.482	59.16723
271.854	58.98936
272.226	59.03396
272.598	58.93172
272.97	59.04181
273.342	59.02895
273.714	58.97043
274.086	59.00276
274.458	59.17524
274.829	59.19116
275.201	59.31342
275.573	59.21237
275.944	59.22657
276.316	59.27649
276.688	59.18075
277.059	59.14581
277.431	59.07028
277.802	58.91191
278.173	58.98982
278.545	59.07551
278.916	58.98005
279.287	59.00653
279.659	58.98211
280.03	58.97167
280.401	58.99328
280.772	58.93411
281.143	58.76439
281.515	58.63905
281.886	58.61745
282.257	58.88091
282.628	59.72472
282.998	61.16928
283.369	63.93285
283.74	68.23178
284.111	73.72473
284.482	80.09689
284.853	86.21055
285.223	91.95991
285.594	97.31677
285.965	101.48054
286.335	104.0786
286.706	105.28416
287.076	105.33005
287.447	105.33004
287.817	105.32994
288.188	105.33049
288.558	105.33078
288.928	105.3311
289.299	105.33143
289.669	105.33156
290.039	105.33111
290.409	105.33058
290.779	105.33047
291.149	105.33073
291.52	105.33106
291.89	105.33
292.26	105.33023
292.629	105.33034
292.999	105.33055
293.369	105.33112
293.739	105.33089
294.109	105.33051
294.479	105.33077
294.848	105.33055
295.218	105.33021
295.588	105.33071
295.957	105.32974
296.327	105.32985
296.696	105.32951
297.066	105.32935
297.435	105.32952
297.805	105.32996
298.174	105.33019
298.544	105.33022
298.913	105.33014
299.282	105.33095
299.651	105.3313
300.021	105.33127
300.39	105.33108
300.759	105.33051
301.128	105.33086
301.497	105.33051
301.866	105.32996
302.235	105.33039
302.604	105.33032
302.973	105.33064
303.342	105.33063
303.71	105.33068
304.079	105.33063
304.448	105.33108
304.817	105.33038
305.185	105.33043
305.554	105.33043
305.923	105.33078
306.291	105.33058
306.66	105.33074
307.028	105.331
307.397	105.33105
307.765	105.33115
308.133	105.33153
308.502	105.33114
308.87	105.33136
309.238	105.33136
309.606	105.33094
309.975	105.33148
310.343	105.33176
310.711	105.33119
311.079	105.33157
311.447	105.33211
311.815	105.33241
312.183	105.33229
312.551	105.33234
312.919	105.33185
313.286	105.33209
313.654	105.33212
314.022	105.33107
314.39	105.33037
314.757	105.33036
315.125	105.32978
315.492	105.33005
315.86	105.32987
316.228	105.32942
316.595	105.33006
316.962	105.33094
317.33	105.33089
317.697	105.33096
318.065	105.33129
318.432	105.33129
318.799	105.33143
319.166	105.33119
319.534	105.33108
319.901	105.33151
320.268	105.33195
320.635	105.33168
321.002	105.33185
321.369	105.33168
321.736	105.33188
322.103	105.33126
322.47	105.33145
322.836	105.33185
323.203	105.33157
323.57	105.33104
323.937	105.3311
324.303	105.33119
324.67	105.33156
325.037	105.33134
325.403	105.33053
325.77	105.33095
326.136	105.33212
326.503	105.33204
326.869	105.33189
327.235	105.33163
327.602	105.33157
327.968	105.33195
328.334	105.33214
328.7	105.33193
329.067	105.33258
329.433	105.3328
329.799	105.33314
330.165	105.33252
330.531	105.33282
330.897	105.33272
331.263	105.33216
331.629	105.33214
331.995	105.33193
332.36	105.33198
332.726	105.33272
333.092	105.3327
333.458	105.33259
333.823	105.33246
334.189	105.33222
334.554	105.33227
334.92	105.33181
335.286	105.33124
335.651	105.33022
336.016	105.32976
336.382	105.32972
336.747	105.32956
337.113	105.32961
337.478	105.32999
337.843	105.33053
338.208	105.33077
338.573	105.33116
338.939	105.33114
339.304	105.33142
339.669	105.33151
340.034	105.3315
340.399	105.33165
340.764	105.33206
341.129	105.33187
341.493	105.33182
341.858	105.33187
342.223	105.33212
342.588	105.33232
342.952	105.33177
343.317	105.33168
343.682	105.33173
344.046	105.33192
344.411	105.33198
344.775	105.33127
345.14	105.33146
345.504	105.33184
345.869	105.33169
346.233	105.33181
346.597	105.33189
346.962	105.33188
347.326	105.3319
347.69	105.33161
348.054	105.33162
348.418	105.3319
348.782	105.33181
349.146	105.33152
349.51	105.33099
349.874	105.33121
350.238	105.33137
350.602	105.33124
350.966	105.33132
351.33	105.33107
351.693	105.33141
352.057	105.33191
352.421	105.33223
352.784	105.33177
353.148	105.33145
353.512	105.33107
353.875	105.3318
354.239	105.33191
354.602	105.33141
354.966	105.33091
355.329	105.33139
355.692	105.33193
356.056	105.33217
356.419	105.33178
356.782	105.33202
357.145	105.33215
357.508	105.33214
357.871	105.3317
358.234	105.33123
358.597	105.33098
358.96	105.33094
359.323	105.33018
359.686	105.32992
360.049	105.33055
360.412	105.3307
360.775	105.33108
361.137	105.3307
361.5	105.33064
361.863	105.33099
362.225	105.33184
362.588	105.33189
362.951	105.33209
363.313	105.33169
363.675	105.33205
364.038	105.33198
364.4	105.33212
364.763	105.33146
365.125	105.33129
365.487	105.33132
365.849	105.33166
366.212	105.33119
366.574	105.33185
366.936	105.33207
367.298	105.33234
367.66	105.33218
368.022	105.33191
368.384	105.33171
368.746	105.33285
369.108	105.33208
369.469	105.33146
369.831	105.33106
370.193	105.33093
370.555	105.33135
370.916	105.33152
371.278	105.33078
371.64	105.33051
372.001	105.33077
372.363	105.33046
372.724	105.331
373.086	105.33108
373.447	105.33129
373.808	105.33174
374.17	105.3317
374.531	105.33141
374.892	105.33233
375.253	105.33136
375.615	105.33107
375.976	105.33023
376.337	105.33015
376.698	105.3312
377.059	105.33157
377.42	105.33203
377.781	105.33279
378.141	105.33275
378.502	105.33338
378.863	105.33317
379.224	105.33273
379.585	105.33253
379.945	105.33249
380.306	105.33247
380.666	105.33275
381.027	105.33261
381.388	105.33236
381.748	105.33252
382.108	105.33249
382.469	105.33162
382.829	105.33135
383.19	105.33116
383.55	105.33112
383.91	105.33146
384.27	105.33081
384.63	105.33037
384.991	105.33079
385.351	105.33061
385.711	105.32972
386.071	105.32971
386.431	105.32969
386.791	105.32974
387.15	105.33071
387.51	105.33066
387.87	105.33058
388.23	105.33129
388.589	105.3317
388.949	105.33205
389.309	105.33264
389.668	105.33214
390.028	105.33197
390.387	105.33248
390.747	105.33245
391.106	105.3327
391.466	105.33237
391.825	105.33269
392.184	105.33306
392.544	105.33335
392.903	105.33323
393.262	105.33304
393.621	105.33246
393.98	105.33291
394.339	105.33211
394.698	105.33142
395.057	105.33153
395.416	105.33167
395.775	105.33193
396.134	105.33196
396.493	105.33137
396.852	105.33172
397.211	105.33241
397.569	105.33233
397.928	105.33234
398.287	105.33209
398.645	105.33269
399.004	105.33259
399.362	105.33279
399.721	105.33242
400.079	105.33209
400.438	105.3325
400.796	105.33303
401.154	105.33268
401.512	105.33274
401.871	105.33273
402.229	105.33306
402.587	105.33353
402.945	105.33289
403.303	105.33209
403.661	105.33206
404.019	105.33215
404.377	105.33183
404.735	105.3314
405.093	105.33052
405.451	105.33089
405.808	105.33119
406.166	105.33085
406.524	105.33093
406.882	105.33011
407.239	105.3303
407.597	105.33071
407.954	105.33044
408.312	105.3307
408.669	105.3307
409.027	105.33062
409.384	105.33157
409.741	105.33123
410.099	105.33066
410.456	105.33039
410.813	105.32991
411.17	105.3299
411.527	105.32966
411.884	105.32951
412.242	105.33017
412.599	105.33106
412.956	105.33153
413.312	105.33202
413.669	105.3326
414.026	105.33304
414.383	105.33315
414.74	105.33239
415.096	105.33189
415.453	105.33151
415.81	105.33165
416.166	105.33067
416.523	105.3303
416.879	105.33055
417.236	105.33113
417.592	105.33107
417.949	105.33108
418.305	105.3311
418.661	105.33147
419.018	105.33199
419.374	105.33152
419.73	105.33191
420.086	105.33233
420.442	105.33224
420.798	105.33216
421.154	105.33224
421.51	105.33219
421.866	105.33233
422.222	105.33157
422.578	105.33141
422.934	105.33145
423.29	105.33166
423.646	105.33159
424.001	105.33104
424.357	105.33055
424.713	105.33112
425.068	105.33088
425.424	105.33091
425.779	105.33126
426.135	105.33195
426.49	105.33234
426.845	105.33284
427.201	105.33282
427.556	105.33291
427.911	105.33328
428.266	105.33238
428.622	105.33173
428.977	105.33174
429.332	105.33218
429.687	105.33206
430.042	105.33205
430.397	105.33141
430.752	105.33178
431.107	105.33202
431.461	105.33203
431.816	105.33177
432.171	105.33135
432.526	105.33123
432.88	105.33141
433.235	105.33068
433.59	105.33088
433.944	105.33082
434.299	105.33131
434.653	105.33138
435.008	105.33198
435.362	105.33199
435.716	105.33289
436.071	105.33239
436.425	105.3326
436.779	105.33217
437.133	105.33261
437.487	105.33229
437.841	105.3328
438.195	105.333
438.549	105.33328
438.903	105.33312
439.257	105.33341
439.611	105.33336
439.965	105.33295
440.319	105.33338
440.673	105.33322
441.026	105.3332
441.38	105.33329
441.734	105.33329
442.087	105.33299
442.441	105.33319
442.794	105.33236
443.148	105.33212
443.501	105.33214
443.855	105.33199
444.208	105.33165
444.561	105.33141
444.915	105.33168
445.268	105.33171
445.621	105.33135
445.974	105.33143
446.327	105.33111
446.68	105.33095
447.033	105.33174
447.386	105.33167
447.739	105.33196
448.092	105.33233
448.445	105.33212
448.798	105.33214
449.15	105.33275
449.503	105.33235
449.856	105.33254
450.209	105.33281
450.561	105.33235
450.914	105.3329
451.266	105.33326
451.619	105.33289
451.971	105.33279
452.323	105.33262
452.676	105.3318
453.028	105.33258
453.38	105.33183
453.733	105.33165
454.085	105.33125
454.437	105.33152
454.789	105.33154
455.141	105.3323
455.493	105.33213
455.845	105.33263
456.197	105.33256
456.549	105.33269
456.901	105.33282
457.253	105.33279
457.604	105.33245
457.956	105.33183
458.308	105.33208
458.659	105.33237
459.011	105.33219
459.362	105.33178
459.714	105.33174
460.065	105.33174
460.417	105.33208
460.768	105.33183
461.12	105.33131
461.471	105.33185
461.822	105.33234
462.173	105.33252
462.525	105.3327
462.876	105.33266
463.227	105.33205
463.578	105.33245
463.929	105.33196
464.28	105.33124
464.631	105.33078
464.982	105.33104
465.332	105.3309
465.683	105.33126
466.034	105.3311
466.385	105.33111
466.735	105.33108
467.086	105.33114
467.437	105.33122
467.787	105.33123
468.138	105.33104
468.488	105.33151
468.839	105.33181
469.189	105.33176
469.539	105.33191
469.89	105.3315
470.24	105.33136
470.59	105.33153
470.94	105.33166
471.29	105.33129
471.64	105.3317
471.99	105.33202
472.34	105.33241
472.69	105.33217
473.04	105.33249
473.39	105.33237
473.74	105.3327
474.09	105.33262
474.439	105.33261
474.789	105.33234
475.139	105.33283
475.488	105.33251
475.838	105.33249
476.188	105.33237
476.537	105.33256
476.886	105.33234
477.236	105.33172
477.585	105.33171
477.935	105.33157
478.284	105.33144
478.633	105.33143
478.982	105.33142
479.331	105.33151
479.68	105.33193
480.03	105.33206
480.379	105.33238
480.728	105.33213
481.076	105.33222
481.425	105.33236
481.774	105.33217
482.123	105.33185
482.472	105.33187
482.821	105.33204
483.169	105.33231
483.518	105.33236
483.866	105.33227
484.215	105.33221
484.563	105.33251
484.912	105.33199
485.26	105.33165
485.609	105.33213
485.957	105.33219
486.305	105.33176
486.654	105.33202
487.002	105.33268
487.35	105.33297
487.698	105.33281
488.046	105.33193
488.394	105.33183
488.742	105.33209
489.09	105.33213
489.438	105.33176
489.786	105.33244
490.134	105.3326
490.482	105.33345
490.829	105.33297
491.177	105.33345
491.525	105.33336
491.872	105.33287
492.22	105.33253
492.567	105.33236
492.915	105.33167
493.262	105.332
493.61	105.331
493.957	105.33145
494.304	105.33148
494.652	105.33181
494.999	105.33212
495.346	105.33204
495.693	105.3323
496.04	105.33319
496.387	105.33259
496.734	105.33292
497.081	105.33249
497.428	105.33238
497.775	105.33266
498.122	105.3326
498.469	105.33219
498.816	105.33268
499.162	105.33227
499.509	105.33217
499.856	105.33253
500.202	105.33263
500.549	105.33256
500.895	105.33245
501.242	105.3322
501.588	105.33249
501.935	105.33223
502.281	105.33205
502.627	105.332
502.973	105.33161
503.32	105.33131
503.666	105.33123
504.012	105.33109
504.358	105.33099
504.704	105.33023
505.05	105.33032
505.396	105.33112
505.742	105.33151
506.088	105.33172
506.433	105.33185
506.779	105.33209
507.125	105.33232
507.471	105.33193
507.816	105.33151
508.162	105.332
508.507	105.33223
508.853	105.33247
509.198	105.33228
509.544	105.33311
509.889	105.33348
510.234	105.33324
510.58	105.33298
510.925	105.33278
511.27	105.33275
511.615	105.33291
511.96	105.33208
512.306	105.33195
512.651	105.33178
512.996	105.33138
513.341	105.33113
513.685	105.33075
514.03	105.33123
514.375	105.33218
514.72	105.33238
515.065	105.33294
515.409	105.33302
515.754	105.33275
516.099	105.33328
516.443	105.3327
516.788	105.33208
517.132	105.33159
517.476	105.33121
517.821	105.33151
518.165	105.33159
518.51	105.33098
518.854	105.33134
519.198	105.33132
519.542	105.3319
519.886	105.33201
520.23	105.33171
520.574	105.33178
520.918	105.33206
521.262	105.33199
521.606	105.33178
521.95	105.33131
522.294	105.33128
522.638	105.33125
522.981	105.33125
523.325	105.33119
523.669	105.33151
524.012	105.33171
524.356	105.33172
524.699	105.33208
525.043	105.33193
525.386	105.33217
525.73	105.33506
526.073	105.33441
526.416	105.33435
526.76	105.33479
527.103	105.33476
527.446	105.33586
527.789	105.33588
528.132	105.3334
528.475	105.3343
528.818	105.33433
529.161	105.33384
529.504	105.33322
529.847	105.33243
530.19	105.3323
530.532	105.33178
530.875	105.33055
531.218	105.3305
531.56	105.33062
531.903	105.33138
532.246	105.33119
532.588	105.33102
532.93	105.33142
533.273	105.33211
533.615	105.33212
533.958	105.33228
534.3	105.33156
534.642	105.33242
534.984	105.33257
535.326	105.33214
535.669	105.33237
536.011	105.33245
536.353	105.33241
536.695	105.33302
537.037	105.33282
537.378	105.33256
537.72	105.33234
538.062	105.33176
538.404	105.33128
538.746	105.33129
539.087	105.33122
539.429	105.33105
539.77	105.33136
540.112	105.33185
540.454	105.33256
540.795	105.3329
541.136	105.33296
541.478	105.33305
541.819	105.33265
542.16	105.33273
542.502	105.33259
542.843	105.3323
543.184	105.3326
543.525	105.33242
543.866	105.33182
544.207	105.33172
544.548	105.33162
544.889	105.33121
545.23	105.33107
545.571	105.33141
545.911	105.33135
546.252	105.33189
546.593	105.33218
546.934	105.33208
547.274	105.33262
547.615	105.33269
547.955	105.33239
548.296	105.33288
548.636	105.33281
548.977	105.33251
549.317	105.33317
549.657	105.33363
549.997	105.33398
550.338	105.33353
550.678	105.33326
551.018	105.33279
551.358	105.33321
551.698	105.33292
552.038	105.33236
552.378	105.33199
552.718	105.3328
553.058	105.33303
553.398	105.33376
553.737	105.33349
554.077	105.33363
554.417	105.33357
554.756	105.33382
555.096	105.33309
555.435	105.33317
555.775	105.33249
556.114	105.33259
556.454	105.33199
556.793	105.33222
557.133	105.33219
557.472	105.33205
557.811	105.33183
558.15	105.33213
558.489	105.33197
558.829	105.33234
559.168	105.33213
559.507	105.332
559.846	105.33251
560.184	105.33248
560.523	105.33253
560.862	105.33307
561.201	105.33328
561.54	105.33358
561.878	105.33352
562.217	105.33325
562.556	105.33305
562.894	105.3339
563.233	105.3339
563.571	105.33389
563.91	105.3336
564.248	105.33359
564.586	105.33368
564.925	105.3339
565.263	105.33244
565.601	105.33191
565.939	105.33151
566.277	105.33161
566.616	105.33181
566.954	105.33169
567.292	105.33211
567.63	105.33355
567.967	105.3339
568.305	105.3338
568.643	105.33342
568.981	105.33318
569.319	105.33339
569.656	105.33314
569.994	105.33238
570.331	105.33193
570.669	105.33205
571.006	105.33235
571.344	105.33202
571.681	105.3315
572.019	105.33123
572.356	105.33155
572.693	105.33208
573.03	105.33216
573.368	105.33193
573.705	105.33222
574.042	105.33264
574.379	105.33224
574.716	105.33166
575.053	105.3313
575.39	105.33109
575.727	105.33112
576.063	105.3311
576.4	105.33161
576.737	105.33185
577.074	105.33198
577.41	105.33228
577.747	105.33243
578.083	105.33217
578.42	105.33197
578.756	105.33153
579.093	105.33211
579.429	105.3322
579.766	105.33196
580.102	105.33231
580.438	105.33254
580.774	105.33275
581.11	105.33263
581.446	105.33233
581.782	105.33188
582.119	105.33188
582.454	105.33167
582.79	105.33172
583.126	105.33191
583.462	105.33218
583.798	105.33162
584.134	105.33168
584.469	105.33183
584.805	105.33157
585.141	105.33204
585.476	105.33206
585.812	105.33177
586.147	105.33206
586.482	105.33249
586.818	105.33213
587.153	105.33277
587.488	105.33239
587.824	105.33217
588.159	105.33204
588.494	105.33213
588.829	105.33185
589.164	105.33235
589.499	105.33204
589.834	105.33176
590.169	105.33158
590.504	105.33158
590.839	105.33131
591.174	105.33122
591.508	105.33093
591.843	105.33111
592.178	105.33162
592.512	105.33151
592.847	105.33119
593.181	105.33132
593.516	105.33131
593.85	105.33151
594.185	105.33098
594.519	105.33044
594.853	105.33045
595.187	105.33129
595.522	105.33168
595.856	105.33197
596.19	105.33176
596.524	105.33212
596.858	105.33256
597.192	105.33294
597.526	105.33241
597.86	105.33248
598.194	105.33277
598.527	105.33256
598.861	105.33182
599.195	105.33207
599.528	105.33146
599.862	105.33127
600.196	105.331
600.529	105.33069
600.863	105.33089
601.196	105.33176
601.529	105.33129
601.863	105.33193
602.196	105.33203
602.529	105.3318
602.862	105.33215
603.196	105.33226
603.529	105.33202
603.862	105.3316
604.195	105.33156
604.528	105.33198
604.861	105.33242
605.193	105.3322
605.526	105.33211
605.859	105.33153
606.192	105.33187
606.524	105.33175
606.857	105.33157
607.19	105.33158
607.522	105.33099
607.855	105.33125
608.187	105.33151
608.52	105.33182
608.852	105.33193
609.184	105.33193
609.517	105.33182
609.849	105.33222
610.181	105.33208
610.513	105.33282
610.845	105.33231
611.177	105.33257
611.509	105.3322
611.841	105.33213
612.173	105.3317
612.505	105.33176
612.837	105.33136
613.169	105.33115
613.5	105.33132
613.832	105.33175
614.164	105.33166
614.495	105.33239
614.827	105.33201
615.158	105.33176
615.49	105.33261
615.821	105.33222
616.152	105.33232
616.484	105.33232
616.815	105.33178
617.146	105.33216
617.477	105.33266
617.808	105.33256
618.14	105.33236
618.471	105.33158
618.802	105.33181
619.133	105.33184
619.463	105.33145
619.794	105.33105
620.125	105.33095
620.456	105.33092
620.787	105.33143
621.117	105.33156
621.448	105.33195
621.778	105.33223
622.109	105.33191
622.439	105.33151
622.77	105.33134
623.1	105.33178
623.43	105.33148
623.761	105.33201
624.091	105.33227
624.421	105.33233
624.751	105.33268
625.081	105.333
625.412	105.33233
625.742	105.33224
626.072	105.33153
626.401	105.3312
626.731	105.33159
627.061	105.33154
627.391	105.3313
627.721	105.33183
628.05	105.33166
628.38	105.33177
628.71	105.33253
629.039	105.33265
629.369	105.33297
629.698	105.33261
630.028	105.33249
630.357	105.33285
630.686	105.33266
631.015	105.33218
631.345	105.33224
631.674	105.33158
632.003	105.33216
632.332	105.33263
632.661	105.33258
632.99	105.33263
633.319	105.33189
633.648	105.33108
633.977	105.33152
634.306	105.33092
634.634	105.33093
634.963	105.33099
635.292	105.33107
635.62	105.33172
635.949	105.33262
636.277	105.33192
636.606	105.33245
636.934	105.33141
637.263	105.33132
637.591	105.33137
637.919	105.33167
638.248	105.3313
638.576	105.33203
638.904	105.33203
639.232	105.33256
639.56	105.3327
639.888	105.33272
640.216	105.3326
640.544	105.33229
640.872	105.33202
641.2	105.33219
641.528	105.33246
641.855	105.33226
642.183	105.33224
642.511	105.33313
642.838	105.33363
643.166	105.33324
643.493	105.33273
643.821	105.33238
644.148	105.33197
644.475	105.33131
644.803	105.32963
645.13	105.32903
645.457	105.32977
645.784	105.32999
646.112	105.32939
646.439	105.33032
646.766	105.33111
647.093	105.33134
647.42	105.33159
647.746	105.33147
648.073	105.33188
648.4	105.33232
648.727	105.3314
649.053	105.33148
649.38	105.33184
649.707	105.3319
650.033	105.33157
650.36	105.3315
650.686	105.33174
651.013	105.33166
651.339	105.33132
651.665	105.33129
651.992	105.33102
652.318	105.33109
652.644	105.33108
652.97	105.33043
653.296	105.33048
653.622	105.3304
653.948	105.32996
654.274	105.33012
654.6	105.3306
654.926	105.33082
655.252	105.3318
655.578	105.33245
655.903	105.33203
656.229	105.33197
656.555	105.33154
656.88	105.33107
657.206	105.33054
657.531	105.33009
657.857	105.32931
658.182	105.32999
658.507	105.33061
658.833	105.3314
659.158	105.33105
659.483	105.33121
659.808	105.33108
660.133	105.33129
660.458	105.33085
660.783	105.3306
661.108	105.33029
661.433	105.33029
661.758	105.33007
662.083	105.32978
662.408	105.32993
662.732	105.33025
663.057	105.33034
663.382	105.3299
663.706	105.33045
664.031	105.33059
664.355	105.33117
664.68	105.33081
665.004	105.3305
665.328	105.33016
665.653	105.33044
665.977	105.33045
666.301	105.33011
666.625	105.33037
666.949	105.33054
667.273	105.33115
667.597	105.33117
667.921	105.3315
668.245	105.33183
668.569	105.3319
668.893	105.33132
669.217	105.33139
669.54	105.33105
669.864	105.33132
670.188	105.33099
670.511	105.33034
670.835	105.33022
671.158	105.33019
671.482	105.33013
671.805	105.32997
672.128	105.33018
672.452	105.3312
672.775	105.3315
673.098	105.33165
673.421	105.33201
673.744	105.33251
674.068	105.33239
674.391	105.33223
674.714	105.33165
675.036	105.33171
675.359	105.33175
675.682	105.33191
676.005	105.33161
676.328	105.33165
676.65	105.33112
676.973	105.33091
677.295	105.33051
677.618	105.3308
677.94	105.33062
678.263	105.3309
678.585	105.33069
678.908	105.33091
679.23	105.33132
679.552	105.33146
679.874	105.33122
680.196	105.33096
680.519	105.33067
680.841	105.33128
681.163	105.33155
681.485	105.33105
681.807	105.33117
682.128	105.33101
682.45	105.3312
682.772	105.33154
683.094	105.33124
683.415	105.33172
683.737	105.33191
684.059	105.33196
684.38	105.33243
684.702	105.33221
685.023	105.33184
685.344	105.33213
685.666	105.33172
685.987	105.3315
686.308	105.33144
686.629	105.33125
686.95	105.33147
687.272	105.33144
687.593	105.33101
687.914	105.33046
688.235	105.3306
688.555	105.33092
688.876	105.33104
689.197	105.33091
689.518	105.3311
689.839	105.33161
690.159	105.33088
690.48	105.33073
690.8	105.33083
691.121	105.33111
691.441	105.33114
691.762	105.33095
692.082	105.33066
692.402	105.33193
692.723	105.33178
693.043	105.33161
693.363	105.33163
693.683	105.33121
694.003	105.33114
694.323	105.33091
694.643	105.33131
694.963	105.33177
695.283	105.3312
695.603	105.33045
695.923	105.3308
696.243	105.33117
696.562	105.33092
696.882	105.33052
697.202	105.33021
697.521	105.33096
697.841	105.33184
698.16	105.33193
698.479	105.33152
698.799	105.33165
699.118	105.33142
699.437	105.33176
699.757	105.3311
700.076	105.33045
700.395	105.33054
700.714	105.33048
701.033	105.3311
701.352	105.33106
701.671	105.33099
701.99	105.33115
702.308	105.33162
702.627	105.33141
702.946	105.33197
703.265	105.33161
703.583	105.33219
703.902	105.33213
704.22	105.3323
704.539	105.33174
704.857	105.3315
705.176	105.3312
705.494	105.33138
705.812	105.33067
706.131	105.33052
706.449	105.33045
706.767	105.33098
707.085	105.33175
707.403	105.33181
707.721	105.33172
708.039	105.33192
708.357	105.33221
708.675	105.33208
708.993	105.33173
709.31	105.33147
709.628	105.33137
709.946	105.33161
710.263	105.33158
710.581	105.3313
710.898	105.33139
711.216	105.33127
711.533	105.33131
711.851	105.33158
712.168	105.33158
712.485	105.33166
712.802	105.33192
713.12	105.33197
713.437	105.33175
713.754	105.33152
714.071	105.33113
714.388	105.33117
714.705	105.33132
715.022	105.33127
715.338	105.33106
715.655	105.33134
715.972	105.33076
716.289	105.33098
716.605	105.3303
716.922	105.33036
717.238	105.33089
717.555	105.33125
717.871	105.33122
718.188	105.33201
718.504	105.33188
718.82	105.33221
719.136	105.33156
719.453	105.33129
719.769	105.33057
720.085	105.33044
720.401	105.33011
720.717	105.33065
721.033	105.3305
721.349	105.33093
721.665	105.33097
721.98	105.33201
722.296	105.33227
722.612	105.33278
722.927	105.33228
723.243	105.33246
723.559	105.3328
723.874	105.33252
724.19	105.3315
724.505	105.33162
724.82	105.33097
725.136	105.33122
725.451	105.33081
725.766	105.33025
726.081	105.32939
726.396	105.32974
726.711	105.32932
727.026	105.32959
727.341	105.32974
727.656	105.33016
727.971	105.33024
728.286	105.33088
728.601	105.33065
728.916	105.3309
729.23	105.33088
729.545	105.33017
729.859	105.33017
730.174	105.33035
730.488	105.32999
730.803	105.3306
731.117	105.33093
731.431	105.33114
731.746	105.33188
732.06	105.33172
732.374	105.3317
732.688	105.33237
733.002	105.3322
733.316	105.33202
733.63	105.33197
733.944	105.3318
734.258	105.33208
734.572	105.33196
734.886	105.3315
735.199	105.33114
735.513	105.33136
735.827	105.33152
736.14	105.33155
736.454	105.33167
736.767	105.33155
737.081	105.3315
737.394	105.33197
737.708	105.33125
738.021	105.33116
738.334	105.33101
738.647	105.33074
738.96	105.33082
739.273	105.33127
739.587	105.33104
739.9	105.33077
740.212	105.33033
740.525	105.33024
740.838	105.33024
741.151	105.33076
741.464	105.33053
741.776	105.33027
742.089	105.33106
742.402	105.33082
742.714	105.33112
743.027	105.3314
743.339	105.33077
743.651	105.3313
743.964	105.33175
744.276	105.33168
744.588	105.33196
744.901	105.33167
745.213	105.3315
745.525	105.33138
745.837	105.33042
746.149	105.33022
746.461	105.33012
746.773	105.3306
747.085	105.33084
747.396	105.33076
747.708	105.33135
748.02	105.33189
748.331	105.33186
748.643	105.3323
748.955	105.33204
749.266	105.33203
749.577	105.33238
749.889	105.33213
750.2	105.33231
750.512	105.33282
750.823	105.33254
751.134	105.33244
751.445	105.33272
751.756	105.3327
752.067	105.3322
752.378	105.3323
752.689	105.33244
753	105.33237
753.311	105.33258
753.622	105.3322
753.932	105.33245
754.243	105.33296
754.554	105.3323
754.864	105.3317
755.175	105.33199
755.485	105.33207
755.796	105.33157
756.106	105.33116
756.417	105.33114
756.727	105.33166
757.037	105.33208
757.347	105.33162
757.658	105.3316
757.968	105.332
758.278	105.33189
758.588	105.33222
758.898	105.3317
759.208	105.33135
759.517	105.33184
759.827	105.33163
760.137	105.33166
760.447	105.33187
760.756	105.3315
761.066	105.33178
761.375	105.33137
761.685	105.33078
761.994	105.33077
762.304	105.33109
762.613	105.3305
762.922	105.33023
763.232	105.33013
763.541	105.33014
763.85	105.33022
764.159	105.32989
764.468	105.32996
764.777	105.32994
765.086	105.33008
765.395	105.33027
765.704	105.33014
766.013	105.33008
766.321	105.32988
766.63	105.3292
766.939	105.32949
767.247	105.32961
767.556	105.32891
767.864	105.3292
768.173	105.32919
768.481	105.32957
768.789	105.32981
769.098	105.33016
769.406	105.33027
769.714	105.33084
770.022	105.33086
770.33	105.33129
770.638	105.33137
770.946	105.33129
771.254	105.33079
771.562	105.33078
771.87	105.33069
772.178	105.33088
772.486	105.33071
772.793	105.33093
773.101	105.33101
773.408	105.33095
773.716	105.33112
774.023	105.33115
774.331	105.33113
774.638	105.33105
774.946	105.33078
775.253	105.33044
775.56	105.331
775.867	105.33085
776.174	105.33098
776.481	105.3309
776.788	105.33108
777.095	105.33187
777.402	105.33252
777.709	105.332
778.016	105.33209
778.323	105.33152
778.63	105.33178
778.936	105.33178
779.243	105.33078
779.549	105.33009
779.856	105.33019
780.162	105.33005
780.469	105.3305
780.775	105.33006
781.082	105.32987
781.388	105.33
781.694	105.33043
782	105.33019
782.306	105.33012
782.612	105.33077
782.918	105.33158
783.224	105.33114
783.53	105.33092
783.836	105.33132
784.142	105.33219
784.448	105.33191
784.753	105.33137
785.059	105.33086
785.365	105.33185
785.67	105.33267
785.976	105.33272
786.281	105.33232
786.586	105.33246
786.892	105.33234
787.197	105.33219
787.502	105.3317
787.808	105.33098
788.113	105.33004
788.418	105.3305
788.723	105.33065
789.028	105.33081
789.333	105.33153
789.638	105.3317
789.942	105.33258
790.247	105.33311
790.552	105.3326
790.857	105.33313
791.161	105.33314
791.466	105.33238
791.77	105.33241
792.075	105.33204
792.379	105.3327
792.684	105.33299
792.988	105.33217
793.292	105.33208
793.597	105.3322
793.901	105.33206
794.205	105.33197
794.509	105.33143
794.813	105.33066
795.117	105.33095
795.421	105.33141
795.725	105.33157
796.029	105.3314
796.332	105.33125
796.636	105.3307
796.94	105.33108
797.243	105.33114
797.547	105.33106
797.85	105.33062
798.154	105.33123
798.457	105.33069
798.761	105.33081
799.064	105.33082
799.367	105.33081
799.67	105.3308
799.973	105.33082
800.277	105.33005
800.58	105.33046
800.883	105.33045
801.186	105.33067
801.488	105.33081
801.791	105.33025
802.094	105.33054
802.397	105.33068
802.699	105.33031
803.002	105.33117
803.305	105.33075
803.607	105.33089
803.91	105.33106
804.212	105.33075
804.515	105.3313
804.817	105.33221
805.119	105.33125
805.421	105.33116
805.724	105.3305
806.026	105.33102
806.328	105.3316
806.63	105.33112
806.932	105.331
807.234	105.33131
807.535	105.33165
807.837	105.33226
808.139	105.33214
808.441	105.33215
808.742	105.33223
809.044	105.332
809.346	105.33218
809.647	105.33231
809.948	105.33213
810.25	105.33185
810.551	105.33199
810.853	105.33151
811.154	105.33192
811.455	105.33183
811.756	105.33197
812.057	105.33184
812.358	105.332
812.659	105.33165
812.96	105.33231
813.261	105.33236
813.562	105.33221
813.863	105.33147
814.163	105.3318
814.464	105.33145
814.765	105.33158
815.065	105.33137
815.366	105.33078
815.666	105.33083
815.967	105.33156
816.267	105.33167
816.567	105.33166
816.868	105.33115
817.168	105.33116
817.468	105.33125
817.768	105.33152
818.068	105.3312
818.368	105.3306
818.668	105.33089
818.968	105.33119
819.268	105.27512
819.568	105.18129
819.867	105.10085
820.167	104.92499
820.467	104.74485
820.766	104.42947
821.066	103.94696
821.365	103.5156
821.665	102.97248
821.964	102.33771
822.263	101.86141
822.563	101.09171
822.862	100.36992
823.161	99.76681
823.46	99.10726
823.759	98.5406
824.058	97.93251
824.357	97.1873
824.656	96.4807
824.955	95.79704
825.254	94.96886
825.552	94.26064
825.851	93.53844
826.15	92.702
826.448	91.69279
826.747	90.87446
827.045	90.12691
827.344	89.48496
827.642	88.6244
827.941	87.58124
828.239	86.51485
828.537	85.46013
828.835	84.38275
829.133	83.30532
829.432	82.27372
829.73	81.19125
830.028	80.27477
830.325	79.45962
830.623	78.8347
830.921	78.22882
831.219	77.57584
831.517	76.8843
831.814	76.32924
832.112	75.68627
832.409	75.14505
832.707	74.60516
833.004	74.02011
833.302	73.42821
833.599	72.88231
833.896	72.27257
834.194	71.72802
834.491	71.21382
834.788	70.63379
835.085	70.11729
835.382	69.67995
835.679	69.24277
835.976	68.86709
836.273	68.65903
836.57	68.45461
836.866	68.25547
837.163	68.11654
837.46	67.93091
837.756	67.7612
838.053	67.85284
838.349	67.79502
838.646	67.77217
838.942	67.73655
839.239	67.75393
839.535	67.62251
839.831	67.55235
840.127	67.22002
840.423	67.03036
840.72	66.73936
841.016	66.54747
841.312	66.34121
841.607	66.30666
841.903	66.09871
842.199	66.07691
842.495	65.86908
842.791	65.76768
843.086	65.75117
843.382	65.63317
843.677	65.31104
843.973	65.13945
844.268	64.8626
844.564	64.74429
844.859	64.64964
845.154	64.47509
845.45	64.37003
845.745	64.40471
846.04	64.42757
846.335	64.32143
846.63	64.14252
846.925	64.02761
847.22	63.8743
847.515	63.51156
847.81	63.33692
848.104	63.13765
848.399	63.0028
848.694	62.84052
848.988	62.34649
849.283	62.05401
849.578	61.9199
849.872	61.40467
850.166	60.98456
850.461	60.45659
850.755	60.00002
851.049	59.76713
851.343	59.17816
851.638	58.62588
851.932	58.62646
852.226	57.80283
852.52	57.34972
852.814	56.86028
853.107	55.96425
853.401	55.50892
853.695	54.77645
853.989	53.34721
854.282	52.92803
854.576	51.93658
854.869	50.59723
855.163	50.04895
855.456	48.6764
855.75	47.35621
856.043	46.57335
856.336	45.60713
856.63	44.37614
856.923	43.42317
857.216	41.71148
857.509	40.64231
857.802	39.83927
858.095	38.51039
858.388	37.09407
858.681	36.4176
858.974	35.51783
859.266	35.04404
859.559	34.36353
859.852	32.92043
860.144	31.63354
860.437	30.31008
860.729	28.9186
861.022	28.72862
861.314	27.2883
861.606	25.61492
861.899	25.41014
862.191	24.74183
862.483	24.0775
862.775	23.87152
863.067	23.03637
863.359	22.30088
863.651	21.58085
863.943	20.92408
864.235	19.75665
864.527	19.67188
864.819	18.58491
865.11	17.29823
865.402	17.66406
865.693	17.50313
865.985	16.83866
866.276	17.21374
866.568	16.75708
866.859	16.95799
867.151	16.90635
867.442	16.02941
867.733	16.32755
868.024	16.38555
868.315	16.40916
868.606	16.26649
868.897	16.70075
869.188	16.90918
869.479	17.38409
869.77	17.72334
870.061	18.57024
870.351	18.9375
870.642	19.10513
870.933	19.14129
871.223	19.50496
871.514	19.71282
871.804	19.64675
872.095	18.97573
872.385	18.85263
872.675	19.0381
