Data from 72h-ambient_CB-1e-6_Absorbance_09-25-59-079.txt Node
Date: Mon Aug 21 09:25:59 EDT 2023
User: UV-vis
Spectrometer: FLMS04918
Trigger mode: 0
Integration Time (sec): 1.000000E-1
Scans to average: 3
Electric dark correction enabled: true
Nonlinearity correction enabled: false
Boxcar width: 3
XAxis mode: Wavelengths
Number of Pixels in Spectrum: 2048
>>>>>Begin Spectral Data<<<<<
179.23	0.37626
179.611	0.48401
179.992	0.50511
180.373	0.43711
180.754	0.36142
181.134	0.54526
181.515	0.47843
181.896	-0
182.276	0.2255
182.657	-0.03635
183.038	0.97693
183.418	-0
183.799	0.17673
184.179	0.33503
184.56	0.55782
184.94	0.16899
185.32	0.31716
185.701	0.46132
186.081	0.09281
186.461	-0.20861
186.842	0.26993
187.222	0.26005
187.602	0.26129
187.982	0.25814
188.362	0.25733
188.742	0.2597
189.122	0.26036
189.502	0.25931
189.882	0.25816
190.262	0.25813
190.642	0.25965
191.022	0.2596
191.402	0.25829
191.781	0.25716
192.161	0.25846
192.541	0.25991
192.92	0.26023
193.3	0.25819
193.68	0.25809
194.059	0.25773
194.439	0.25772
194.818	0.25673
195.198	0.25581
195.577	0.25345
195.957	0.25396
196.336	0.25432
196.715	0.25429
197.094	0.25366
197.474	0.2533
197.853	0.25344
198.232	0.25341
198.611	0.25244
198.99	0.25311
199.369	0.25284
199.748	0.2534
200.127	0.25356
200.506	0.25394
200.885	0.2561
201.264	0.25718
201.643	0.25614
202.022	0.25673
202.401	0.25631
202.779	0.25606
203.158	0.25568
203.537	0.2557
203.915	0.25679
204.294	0.25709
204.673	0.25683
205.051	0.25732
205.43	0.25793
205.808	0.25691
206.187	0.25555
206.565	0.25359
206.943	0.25476
207.322	0.25445
207.7	0.25373
208.078	0.25336
208.456	0.25277
208.835	0.25281
209.213	0.25203
209.591	0.25079
209.969	0.25047
210.347	0.25115
210.725	0.24974
211.103	0.25108
211.481	0.25076
211.859	0.25232
212.237	0.25191
212.614	0.25182
212.992	0.25191
213.37	0.25316
213.748	0.25354
214.125	0.25429
214.503	0.25316
214.881	0.25352
215.258	0.25368
215.636	0.25242
216.013	0.25345
216.391	0.25285
216.768	0.25163
217.145	0.25218
217.523	0.25231
217.9	0.25252
218.277	0.2536
218.655	0.25234
219.032	0.25138
219.409	0.25175
219.786	0.25265
220.163	0.25287
220.54	0.2534
220.917	0.25449
221.294	0.25491
221.671	0.25592
222.048	0.25768
222.425	0.25812
222.802	0.25826
223.179	0.25796
223.556	0.25757
223.932	0.25687
224.309	0.25785
224.686	0.25644
225.062	0.2545
225.439	0.25369
225.815	0.25344
226.192	0.25219
226.568	0.25279
226.945	0.25211
227.321	0.25188
227.698	0.25302
228.074	0.25314
228.45	0.25278
228.827	0.25306
229.203	0.25278
229.579	0.25246
229.955	0.25407
230.331	0.25386
230.707	0.25314
231.083	0.2542
231.46	0.25459
231.835	0.25399
232.211	0.25517
232.587	0.25351
232.963	0.25402
233.339	0.25586
233.715	0.25646
234.091	0.25554
234.466	0.25673
234.842	0.25556
235.218	0.25509
235.593	0.25512
235.969	0.25356
236.344	0.25377
236.72	0.25459
237.095	0.25358
237.471	0.25381
237.846	0.25453
238.222	0.25374
238.597	0.2543
238.972	0.25346
239.348	0.25262
239.723	0.25359
240.098	0.25358
240.473	0.25419
240.848	0.25376
241.223	0.25439
241.598	0.25462
241.973	0.25496
242.348	0.2547
242.723	0.25425
243.098	0.25486
243.473	0.25504
243.848	0.25547
244.223	0.2547
244.597	0.25384
244.972	0.25362
245.347	0.25317
245.721	0.25184
246.096	0.2519
246.47	0.25063
246.845	0.2511
247.219	0.2536
247.594	0.25249
247.968	0.25226
248.343	0.25263
248.717	0.25295
249.091	0.25372
249.466	0.25447
249.84	0.2524
250.214	0.25368
250.588	0.25467
250.962	0.25407
251.336	0.25382
251.71	0.25353
252.084	0.25272
252.458	0.25215
252.832	0.25117
253.206	0.25057
253.58	0.25083
253.954	0.25158
254.328	0.2525
254.702	0.2518
255.075	0.25233
255.449	0.25264
255.823	0.25236
256.196	0.25216
256.57	0.25155
256.943	0.24992
257.317	0.25035
257.69	0.25134
258.064	0.25081
258.437	0.25096
258.81	0.25161
259.184	0.25229
259.557	0.25277
259.93	0.25352
260.303	0.25281
260.677	0.25304
261.05	0.25408
261.423	0.25249
261.796	0.2521
262.169	0.25332
262.542	0.25121
262.915	0.25087
263.288	0.25084
263.661	0.25029
264.033	0.25225
264.406	0.25153
264.779	0.2505
265.152	0.25101
265.524	0.25213
265.897	0.2526
266.27	0.2516
266.642	0.25104
267.015	0.25167
267.387	0.2516
267.76	0.25136
268.132	0.25069
268.504	0.25001
268.877	0.25003
269.249	0.24931
269.621	0.24938
269.994	0.24947
270.366	0.25031
270.738	0.25066
271.11	0.25206
271.482	0.25299
271.854	0.25403
272.226	0.25409
272.598	0.25377
272.97	0.25357
273.342	0.25453
273.714	0.25306
274.086	0.25233
274.458	0.25183
274.829	0.25173
275.201	0.25224
275.573	0.25239
275.944	0.25132
276.316	0.25154
276.688	0.25199
277.059	0.25201
277.431	0.2516
277.802	0.25099
278.173	0.25043
278.545	0.25057
278.916	0.2504
279.287	0.24976
279.659	0.25019
280.03	0.25105
280.401	0.25259
280.772	0.25388
281.143	0.2532
281.515	0.2543
281.886	0.25364
282.257	0.25035
282.628	0.24331
282.998	0.23163
283.369	0.2099
283.74	0.18064
284.111	0.14518
284.482	0.10756
284.853	0.07294
285.223	0.04247
285.594	0.01555
285.965	-0.00386
286.335	-0.01615
286.706	-0.02225
287.076	-0.02332
287.447	-0.02332
287.817	-0.02332
288.188	-0.02331
288.558	-0.02332
288.928	-0.02331
289.299	-0.02332
289.669	-0.02332
290.039	-0.02332
290.409	-0.02332
290.779	-0.02332
291.149	-0.02332
291.52	-0.02332
291.89	-0.02332
292.26	-0.02332
292.629	-0.02331
292.999	-0.02332
293.369	-0.02332
293.739	-0.02332
294.109	-0.02332
294.479	-0.02332
294.848	-0.02332
295.218	-0.02332
295.588	-0.02332
295.957	-0.02332
296.327	-0.02332
296.696	-0.02332
297.066	-0.02332
297.435	-0.02332
297.805	-0.02332
298.174	-0.02332
298.544	-0.02332
298.913	-0.02332
299.282	-0.02332
299.651	-0.02332
300.021	-0.02332
300.39	-0.02332
300.759	-0.02332
301.128	-0.02332
301.497	-0.02332
301.866	-0.02332
302.235	-0.02332
302.604	-0.02331
302.973	-0.02332
303.342	-0.02332
303.71	-0.02332
304.079	-0.02332
304.448	-0.02332
304.817	-0.02332
305.185	-0.02333
305.554	-0.02332
305.923	-0.02332
306.291	-0.02332
306.66	-0.02331
307.028	-0.02332
307.397	-0.02332
307.765	-0.02332
308.133	-0.02332
308.502	-0.02332
308.87	-0.02332
309.238	-0.02332
309.606	-0.02332
309.975	-0.02332
310.343	-0.02332
310.711	-0.02332
311.079	-0.02332
311.447	-0.02332
311.815	-0.02332
312.183	-0.02332
312.551	-0.02332
312.919	-0.02332
313.286	-0.02332
313.654	-0.02332
314.022	-0.02332
314.39	-0.02332
314.757	-0.02332
315.125	-0.02332
315.492	-0.02332
315.86	-0.02332
316.228	-0.02332
316.595	-0.02332
316.962	-0.02332
317.33	-0.02332
317.697	-0.02332
318.065	-0.02332
318.432	-0.02332
318.799	-0.02332
319.166	-0.02332
319.534	-0.02332
319.901	-0.02332
320.268	-0.02332
320.635	-0.02332
321.002	-0.02332
321.369	-0.02332
321.736	-0.02332
322.103	-0.02332
322.47	-0.02332
322.836	-0.02332
323.203	-0.02332
323.57	-0.02332
323.937	-0.02332
324.303	-0.02332
324.67	-0.02332
325.037	-0.02332
325.403	-0.02332
325.77	-0.02332
326.136	-0.02332
326.503	-0.02332
326.869	-0.02332
327.235	-0.02332
327.602	-0.02332
327.968	-0.02332
328.334	-0.02332
328.7	-0.02332
329.067	-0.02332
329.433	-0.02332
329.799	-0.02332
330.165	-0.02332
330.531	-0.02332
330.897	-0.02332
331.263	-0.02332
331.629	-0.02332
331.995	-0.02332
332.36	-0.02332
332.726	-0.02332
333.092	-0.02333
333.458	-0.02332
333.823	-0.02332
334.189	-0.02332
334.554	-0.02332
334.92	-0.02332
335.286	-0.02332
335.651	-0.02332
336.016	-0.02332
336.382	-0.02332
336.747	-0.02332
337.113	-0.02332
337.478	-0.02332
337.843	-0.02332
338.208	-0.02332
338.573	-0.02332
338.939	-0.02332
339.304	-0.02332
339.669	-0.02332
340.034	-0.02332
340.399	-0.02332
340.764	-0.02332
341.129	-0.02332
341.493	-0.02332
341.858	-0.02332
342.223	-0.02332
342.588	-0.02332
342.952	-0.02332
343.317	-0.02332
343.682	-0.02332
344.046	-0.02332
344.411	-0.02332
344.775	-0.02332
345.14	-0.02332
345.504	-0.02332
345.869	-0.02332
346.233	-0.02332
346.597	-0.02332
346.962	-0.02332
347.326	-0.02332
347.69	-0.02332
348.054	-0.02332
348.418	-0.02332
348.782	-0.02332
349.146	-0.02332
349.51	-0.02332
349.874	-0.02332
350.238	-0.02332
350.602	-0.02332
350.966	-0.02332
351.33	-0.02332
351.693	-0.02332
352.057	-0.02332
352.421	-0.02332
352.784	-0.02332
353.148	-0.02332
353.512	-0.02331
353.875	-0.02332
354.239	-0.02332
354.602	-0.02332
354.966	-0.02332
355.329	-0.02332
355.692	-0.02332
356.056	-0.02333
356.419	-0.02332
356.782	-0.02332
357.145	-0.02332
357.508	-0.02332
357.871	-0.02332
358.234	-0.02332
358.597	-0.02332
358.96	-0.02332
359.323	-0.02332
359.686	-0.02332
360.049	-0.02332
360.412	-0.02332
360.775	-0.02332
361.137	-0.02332
361.5	-0.02332
361.863	-0.02332
362.225	-0.02333
362.588	-0.02333
362.951	-0.02333
363.313	-0.02333
363.675	-0.02333
364.038	-0.02333
364.4	-0.02333
364.763	-0.02333
365.125	-0.02332
365.487	-0.02332
365.849	-0.02332
366.212	-0.02332
366.574	-0.02332
366.936	-0.02332
367.298	-0.02332
367.66	-0.02332
368.022	-0.02332
368.384	-0.02332
368.746	-0.02332
369.108	-0.02332
369.469	-0.02332
369.831	-0.02332
370.193	-0.02332
370.555	-0.02332
370.916	-0.02332
371.278	-0.02332
371.64	-0.02332
372.001	-0.02332
372.363	-0.02332
372.724	-0.02332
373.086	-0.02332
373.447	-0.02332
373.808	-0.02332
374.17	-0.02332
374.531	-0.02332
374.892	-0.02332
375.253	-0.02332
375.615	-0.02332
375.976	-0.02332
376.337	-0.02332
376.698	-0.02332
377.059	-0.02332
377.42	-0.02332
377.781	-0.02332
378.141	-0.02333
378.502	-0.02333
378.863	-0.02333
379.224	-0.02332
379.585	-0.02332
379.945	-0.02332
380.306	-0.02332
380.666	-0.02332
381.027	-0.02332
381.388	-0.02332
381.748	-0.02332
382.108	-0.02332
382.469	-0.02332
382.829	-0.02332
383.19	-0.02332
383.55	-0.02332
383.91	-0.02332
384.27	-0.02332
384.63	-0.02332
384.991	-0.02332
385.351	-0.02332
385.711	-0.02332
386.071	-0.02332
386.431	-0.02332
386.791	-0.02332
387.15	-0.02333
387.51	-0.02333
387.87	-0.02333
388.23	-0.02333
388.589	-0.02333
388.949	-0.02333
389.309	-0.02333
389.668	-0.02333
390.028	-0.02333
390.387	-0.02333
390.747	-0.02333
391.106	-0.02333
391.466	-0.02332
391.825	-0.02333
392.184	-0.02333
392.544	-0.02332
392.903	-0.02332
393.262	-0.02332
393.621	-0.02332
393.98	-0.02332
394.339	-0.02332
394.698	-0.02332
395.057	-0.02332
395.416	-0.02332
395.775	-0.02332
396.134	-0.02332
396.493	-0.02332
396.852	-0.02332
397.211	-0.02332
397.569	-0.02332
397.928	-0.02332
398.287	-0.02332
398.645	-0.02332
399.004	-0.02332
399.362	-0.02332
399.721	-0.02332
400.079	-0.02332
400.438	-0.02332
400.796	-0.02332
401.154	-0.02332
401.512	-0.02332
401.871	-0.02332
402.229	-0.02332
402.587	-0.02332
402.945	-0.02332
403.303	-0.02331
403.661	-0.02332
404.019	-0.02332
404.377	-0.02332
404.735	-0.02332
405.093	-0.02332
405.451	-0.02332
405.808	-0.02333
406.166	-0.02333
406.524	-0.02333
406.882	-0.02333
407.239	-0.02333
407.597	-0.02333
407.954	-0.02332
408.312	-0.02332
408.669	-0.02333
409.027	-0.02332
409.384	-0.02332
409.741	-0.02333
410.099	-0.02332
410.456	-0.02332
410.813	-0.02332
411.17	-0.02332
411.527	-0.02332
411.884	-0.02332
412.242	-0.02332
412.599	-0.02332
412.956	-0.02332
413.312	-0.02332
413.669	-0.02332
414.026	-0.02332
414.383	-0.02332
414.74	-0.02332
415.096	-0.02332
415.453	-0.02332
415.81	-0.02332
416.166	-0.02332
416.523	-0.02332
416.879	-0.02332
417.236	-0.02332
417.592	-0.02332
417.949	-0.02332
418.305	-0.02332
418.661	-0.02332
419.018	-0.02332
419.374	-0.02332
419.73	-0.02332
420.086	-0.02332
420.442	-0.02332
420.798	-0.02332
421.154	-0.02332
421.51	-0.02332
421.866	-0.02332
422.222	-0.02332
422.578	-0.02332
422.934	-0.02332
423.29	-0.02332
423.646	-0.02332
424.001	-0.02332
424.357	-0.02332
424.713	-0.02332
425.068	-0.02332
425.424	-0.02332
425.779	-0.02332
426.135	-0.02332
426.49	-0.02332
426.845	-0.02332
427.201	-0.02332
427.556	-0.02332
427.911	-0.02332
428.266	-0.02333
428.622	-0.02332
428.977	-0.02332
429.332	-0.02332
429.687	-0.02332
430.042	-0.02332
430.397	-0.02332
430.752	-0.02332
431.107	-0.02332
431.461	-0.02333
431.816	-0.02333
432.171	-0.02333
432.526	-0.02333
432.88	-0.02333
433.235	-0.02333
433.59	-0.02333
433.944	-0.02333
434.299	-0.02333
434.653	-0.02333
435.008	-0.02333
435.362	-0.02333
435.716	-0.02333
436.071	-0.02333
436.425	-0.02333
436.779	-0.02333
437.133	-0.02333
437.487	-0.02333
437.841	-0.02333
438.195	-0.02333
438.549	-0.02333
438.903	-0.02333
439.257	-0.02333
439.611	-0.02332
439.965	-0.02332
440.319	-0.02332
440.673	-0.02332
441.026	-0.02332
441.38	-0.02332
441.734	-0.02332
442.087	-0.02332
442.441	-0.02332
442.794	-0.02332
443.148	-0.02333
443.501	-0.02333
443.855	-0.02332
444.208	-0.02333
444.561	-0.02332
444.915	-0.02332
445.268	-0.02333
445.621	-0.02332
445.974	-0.02333
446.327	-0.02333
446.68	-0.02333
447.033	-0.02333
447.386	-0.02333
447.739	-0.02333
448.092	-0.02333
448.445	-0.02333
448.798	-0.02332
449.15	-0.02333
449.503	-0.02332
449.856	-0.02332
450.209	-0.02333
450.561	-0.02333
450.914	-0.02333
451.266	-0.02333
451.619	-0.02333
451.971	-0.02333
452.323	-0.02333
452.676	-0.02333
453.028	-0.02333
453.38	-0.02333
453.733	-0.02333
454.085	-0.02333
454.437	-0.02333
454.789	-0.02333
455.141	-0.02333
455.493	-0.02333
455.845	-0.02333
456.197	-0.02333
456.549	-0.02333
456.901	-0.02333
457.253	-0.02333
457.604	-0.02333
457.956	-0.02333
458.308	-0.02333
458.659	-0.02333
459.011	-0.02333
459.362	-0.02333
459.714	-0.02333
460.065	-0.02333
460.417	-0.02333
460.768	-0.02333
461.12	-0.02333
461.471	-0.02333
461.822	-0.02333
462.173	-0.02333
462.525	-0.02333
462.876	-0.02333
463.227	-0.02333
463.578	-0.02333
463.929	-0.02333
464.28	-0.02333
464.631	-0.02333
464.982	-0.02333
465.332	-0.02333
465.683	-0.02333
466.034	-0.02333
466.385	-0.02332
466.735	-0.02332
467.086	-0.02332
467.437	-0.02332
467.787	-0.02332
468.138	-0.02332
468.488	-0.02332
468.839	-0.02333
469.189	-0.02333
469.539	-0.02333
469.89	-0.02333
470.24	-0.02333
470.59	-0.02333
470.94	-0.02333
471.29	-0.02332
471.64	-0.02332
471.99	-0.02332
472.34	-0.02332
472.69	-0.02332
473.04	-0.02332
473.39	-0.02332
473.74	-0.02333
474.09	-0.02333
474.439	-0.02333
474.789	-0.02333
475.139	-0.02333
475.488	-0.02333
475.838	-0.02333
476.188	-0.02333
476.537	-0.02333
476.886	-0.02333
477.236	-0.02333
477.585	-0.02333
477.935	-0.02333
478.284	-0.02333
478.633	-0.02333
478.982	-0.02333
479.331	-0.02333
479.68	-0.02333
480.03	-0.02333
480.379	-0.02333
480.728	-0.02332
481.076	-0.02332
481.425	-0.02332
481.774	-0.02332
482.123	-0.02333
482.472	-0.02333
482.821	-0.02333
483.169	-0.02333
483.518	-0.02333
483.866	-0.02333
484.215	-0.02333
484.563	-0.02333
484.912	-0.02333
485.26	-0.02333
485.609	-0.02333
485.957	-0.02333
486.305	-0.02333
486.654	-0.02333
487.002	-0.02333
487.35	-0.02333
487.698	-0.02333
488.046	-0.02332
488.394	-0.02332
488.742	-0.02332
489.09	-0.02332
489.438	-0.02332
489.786	-0.02332
490.134	-0.02333
490.482	-0.02333
490.829	-0.02333
491.177	-0.02333
491.525	-0.02333
491.872	-0.02333
492.22	-0.02333
492.567	-0.02333
492.915	-0.02333
493.262	-0.02333
493.61	-0.02332
493.957	-0.02333
494.304	-0.02333
494.652	-0.02333
494.999	-0.02333
495.346	-0.02333
495.693	-0.02333
496.04	-0.02333
496.387	-0.02333
496.734	-0.02333
497.081	-0.02333
497.428	-0.02333
497.775	-0.02333
498.122	-0.02333
498.469	-0.02333
498.816	-0.02333
499.162	-0.02333
499.509	-0.02332
499.856	-0.02333
500.202	-0.02333
500.549	-0.02333
500.895	-0.02333
501.242	-0.02333
501.588	-0.02333
501.935	-0.02333
502.281	-0.02333
502.627	-0.02333
502.973	-0.02333
503.32	-0.02333
503.666	-0.02333
504.012	-0.02333
504.358	-0.02333
504.704	-0.02333
505.05	-0.02333
505.396	-0.02333
505.742	-0.02333
506.088	-0.02333
506.433	-0.02333
506.779	-0.02333
507.125	-0.02333
507.471	-0.02333
507.816	-0.02333
508.162	-0.02333
508.507	-0.02333
508.853	-0.02333
509.198	-0.02333
509.544	-0.02333
509.889	-0.02333
510.234	-0.02333
510.58	-0.02333
510.925	-0.02333
511.27	-0.02333
511.615	-0.02333
511.96	-0.02333
512.306	-0.02333
512.651	-0.02333
512.996	-0.02333
513.341	-0.02333
513.685	-0.02333
514.03	-0.02333
514.375	-0.02333
514.72	-0.02333
515.065	-0.02333
515.409	-0.02333
515.754	-0.02333
516.099	-0.02333
516.443	-0.02333
516.788	-0.02333
517.132	-0.02333
517.476	-0.02333
517.821	-0.02333
518.165	-0.02333
518.51	-0.02333
518.854	-0.02333
519.198	-0.02333
519.542	-0.02333
519.886	-0.02333
520.23	-0.02333
520.574	-0.02333
520.918	-0.02333
521.262	-0.02333
521.606	-0.02333
521.95	-0.02333
522.294	-0.02333
522.638	-0.02333
522.981	-0.02333
523.325	-0.02333
523.669	-0.02333
524.012	-0.02333
524.356	-0.02333
524.699	-0.02333
525.043	-0.02333
525.386	-0.02333
525.73	-0.02334
526.073	-0.02334
526.416	-0.02334
526.76	-0.02334
527.103	-0.02334
527.446	-0.02334
527.789	-0.02334
528.132	-0.02333
528.475	-0.02333
528.818	-0.02333
529.161	-0.02333
529.504	-0.02333
529.847	-0.02333
530.19	-0.02333
530.532	-0.02333
530.875	-0.02333
531.218	-0.02333
531.56	-0.02333
531.903	-0.02333
532.246	-0.02333
532.588	-0.02333
532.93	-0.02333
533.273	-0.02333
533.615	-0.02333
533.958	-0.02333
534.3	-0.02333
534.642	-0.02333
534.984	-0.02333
535.326	-0.02333
535.669	-0.02333
536.011	-0.02333
536.353	-0.02333
536.695	-0.02333
537.037	-0.02333
537.378	-0.02333
537.72	-0.02333
538.062	-0.02333
538.404	-0.02333
538.746	-0.02333
539.087	-0.02333
539.429	-0.02333
539.77	-0.02333
540.112	-0.02333
540.454	-0.02332
540.795	-0.02332
541.136	-0.02332
541.478	-0.02333
541.819	-0.02333
542.16	-0.02333
542.502	-0.02333
542.843	-0.02333
543.184	-0.02333
543.525	-0.02333
543.866	-0.02333
544.207	-0.02333
544.548	-0.02333
544.889	-0.02333
545.23	-0.02333
545.571	-0.02333
545.911	-0.02333
546.252	-0.02333
546.593	-0.02333
546.934	-0.02333
547.274	-0.02333
547.615	-0.02333
547.955	-0.02333
548.296	-0.02333
548.636	-0.02333
548.977	-0.02333
549.317	-0.02333
549.657	-0.02333
549.997	-0.02333
550.338	-0.02333
550.678	-0.02333
551.018	-0.02333
551.358	-0.02333
551.698	-0.02333
552.038	-0.02333
552.378	-0.02333
552.718	-0.02333
553.058	-0.02333
553.398	-0.02333
553.737	-0.02333
554.077	-0.02333
554.417	-0.02333
554.756	-0.02333
555.096	-0.02333
555.435	-0.02333
555.775	-0.02333
556.114	-0.02333
556.454	-0.02333
556.793	-0.02333
557.133	-0.02333
557.472	-0.02333
557.811	-0.02333
558.15	-0.02333
558.489	-0.02333
558.829	-0.02333
559.168	-0.02333
559.507	-0.02333
559.846	-0.02333
560.184	-0.02333
560.523	-0.02333
560.862	-0.02333
561.201	-0.02333
561.54	-0.02333
561.878	-0.02333
562.217	-0.02333
562.556	-0.02333
562.894	-0.02333
563.233	-0.02333
563.571	-0.02333
563.91	-0.02333
564.248	-0.02333
564.586	-0.02333
564.925	-0.02333
565.263	-0.02333
565.601	-0.02333
565.939	-0.02333
566.277	-0.02333
566.616	-0.02333
566.954	-0.02333
567.292	-0.02333
567.63	-0.02333
567.967	-0.02333
568.305	-0.02333
568.643	-0.02333
568.981	-0.02333
569.319	-0.02333
569.656	-0.02333
569.994	-0.02333
570.331	-0.02333
570.669	-0.02333
571.006	-0.02333
571.344	-0.02333
571.681	-0.02333
572.019	-0.02333
572.356	-0.02333
572.693	-0.02333
573.03	-0.02333
573.368	-0.02333
573.705	-0.02333
574.042	-0.02333
574.379	-0.02333
574.716	-0.02333
575.053	-0.02334
575.39	-0.02333
575.727	-0.02333
576.063	-0.02333
576.4	-0.02334
576.737	-0.02333
577.074	-0.02333
577.41	-0.02333
577.747	-0.02333
578.083	-0.02333
578.42	-0.02333
578.756	-0.02332
579.093	-0.02332
579.429	-0.02332
579.766	-0.02333
580.102	-0.02333
580.438	-0.02333
580.774	-0.02333
581.11	-0.02333
581.446	-0.02334
581.782	-0.02333
582.119	-0.02333
582.454	-0.02333
582.79	-0.02333
583.126	-0.02333
583.462	-0.02333
583.798	-0.02333
584.134	-0.02333
584.469	-0.02333
584.805	-0.02333
585.141	-0.02333
585.476	-0.02333
585.812	-0.02333
586.147	-0.02333
586.482	-0.02333
586.818	-0.02333
587.153	-0.02333
587.488	-0.02333
587.824	-0.02333
588.159	-0.02333
588.494	-0.02333
588.829	-0.02333
589.164	-0.02333
589.499	-0.02333
589.834	-0.02333
590.169	-0.02333
590.504	-0.02333
590.839	-0.02333
591.174	-0.02333
591.508	-0.02333
591.843	-0.02333
592.178	-0.02333
592.512	-0.02333
592.847	-0.02333
593.181	-0.02333
593.516	-0.02333
593.85	-0.02333
594.185	-0.02333
594.519	-0.02333
594.853	-0.02333
595.187	-0.02333
595.522	-0.02333
595.856	-0.02333
596.19	-0.02333
596.524	-0.02333
596.858	-0.02333
597.192	-0.02333
597.526	-0.02333
597.86	-0.02333
598.194	-0.02333
598.527	-0.02333
598.861	-0.02333
599.195	-0.02333
599.528	-0.02333
599.862	-0.02333
600.196	-0.02333
600.529	-0.02333
600.863	-0.02333
601.196	-0.02332
601.529	-0.02333
601.863	-0.02333
602.196	-0.02333
602.529	-0.02333
602.862	-0.02333
603.196	-0.02333
603.529	-0.02333
603.862	-0.02332
604.195	-0.02332
604.528	-0.02332
604.861	-0.02332
605.193	-0.02332
605.526	-0.02332
605.859	-0.02332
606.192	-0.02332
606.524	-0.02333
606.857	-0.02333
607.19	-0.02332
607.522	-0.02333
607.855	-0.02333
608.187	-0.02333
608.52	-0.02333
608.852	-0.02333
609.184	-0.02333
609.517	-0.02333
609.849	-0.02333
610.181	-0.02333
610.513	-0.02333
610.845	-0.02333
611.177	-0.02332
611.509	-0.02333
611.841	-0.02333
612.173	-0.02333
612.505	-0.02332
612.837	-0.02332
613.169	-0.02332
613.5	-0.02332
613.832	-0.02332
614.164	-0.02332
614.495	-0.02332
614.827	-0.02332
615.158	-0.02333
615.49	-0.02332
615.821	-0.02333
616.152	-0.02333
616.484	-0.02333
616.815	-0.02332
617.146	-0.02332
617.477	-0.02332
617.808	-0.02332
618.14	-0.02332
618.471	-0.02332
618.802	-0.02332
619.133	-0.02332
619.463	-0.02332
619.794	-0.02332
620.125	-0.02332
620.456	-0.02332
620.787	-0.02332
621.117	-0.02332
621.448	-0.02332
621.778	-0.02332
622.109	-0.02332
622.439	-0.02332
622.77	-0.02332
623.1	-0.02333
623.43	-0.02333
623.761	-0.02333
624.091	-0.02333
624.421	-0.02333
624.751	-0.02333
625.081	-0.02333
625.412	-0.02333
625.742	-0.02333
626.072	-0.02333
626.401	-0.02333
626.731	-0.02332
627.061	-0.02332
627.391	-0.02332
627.721	-0.02332
628.05	-0.02332
628.38	-0.02332
628.71	-0.02332
629.039	-0.02332
629.369	-0.02332
629.698	-0.02332
630.028	-0.02333
630.357	-0.02333
630.686	-0.02333
631.015	-0.02333
631.345	-0.02333
631.674	-0.02333
632.003	-0.02333
632.332	-0.02333
632.661	-0.02333
632.99	-0.02332
633.319	-0.02332
633.648	-0.02332
633.977	-0.02332
634.306	-0.02332
634.634	-0.02333
634.963	-0.02333
635.292	-0.02333
635.62	-0.02333
635.949	-0.02333
636.277	-0.02333
636.606	-0.02333
636.934	-0.02333
637.263	-0.02332
637.591	-0.02332
637.919	-0.02332
638.248	-0.02332
638.576	-0.02332
638.904	-0.02332
639.232	-0.02331
639.56	-0.02331
639.888	-0.02331
640.216	-0.02332
640.544	-0.02332
640.872	-0.02332
641.2	-0.02332
641.528	-0.02332
641.855	-0.02333
642.183	-0.02333
642.511	-0.02333
642.838	-0.02333
643.166	-0.02333
643.493	-0.02333
643.821	-0.02333
644.148	-0.02333
644.475	-0.02333
644.803	-0.02332
645.13	-0.02332
645.457	-0.02332
645.784	-0.02333
646.112	-0.02332
646.439	-0.02332
646.766	-0.02333
647.093	-0.02333
647.42	-0.02333
647.746	-0.02332
648.073	-0.02332
648.4	-0.02332
648.727	-0.02332
649.053	-0.02332
649.38	-0.02332
649.707	-0.02332
650.033	-0.02332
650.36	-0.02332
650.686	-0.02332
651.013	-0.02332
651.339	-0.02332
651.665	-0.02332
651.992	-0.02332
652.318	-0.02333
652.644	-0.02332
652.97	-0.02333
653.296	-0.02333
653.622	-0.02333
653.948	-0.02333
654.274	-0.02332
654.6	-0.02332
654.926	-0.02332
655.252	-0.02332
655.578	-0.02332
655.903	-0.02332
656.229	-0.02332
656.555	-0.02332
656.88	-0.02332
657.206	-0.02332
657.531	-0.02332
657.857	-0.02332
658.182	-0.02333
658.507	-0.02332
658.833	-0.02333
659.158	-0.02333
659.483	-0.02332
659.808	-0.02332
660.133	-0.02332
660.458	-0.02332
660.783	-0.02332
661.108	-0.02332
661.433	-0.02332
661.758	-0.02332
662.083	-0.02332
662.408	-0.02332
662.732	-0.02332
663.057	-0.02332
663.382	-0.02332
663.706	-0.02332
664.031	-0.02332
664.355	-0.02333
664.68	-0.02332
665.004	-0.02332
665.328	-0.02332
665.653	-0.02332
665.977	-0.02332
666.301	-0.02332
666.625	-0.02332
666.949	-0.02332
667.273	-0.02332
667.597	-0.02331
667.921	-0.02332
668.245	-0.02331
668.569	-0.02331
668.893	-0.02332
669.217	-0.02332
669.54	-0.02332
669.864	-0.02332
670.188	-0.02332
670.511	-0.02332
670.835	-0.02332
671.158	-0.02332
671.482	-0.02332
671.805	-0.02332
672.128	-0.02332
672.452	-0.02332
672.775	-0.02332
673.098	-0.02332
673.421	-0.02332
673.744	-0.02332
674.068	-0.02332
674.391	-0.02332
674.714	-0.02332
675.036	-0.02332
675.359	-0.02332
675.682	-0.02332
676.005	-0.02332
676.328	-0.02332
676.65	-0.02332
676.973	-0.02332
677.295	-0.02332
677.618	-0.02332
677.94	-0.02332
678.263	-0.02332
678.585	-0.02332
678.908	-0.02332
679.23	-0.02332
679.552	-0.02332
679.874	-0.02332
680.196	-0.02332
680.519	-0.02332
680.841	-0.02332
681.163	-0.02332
681.485	-0.02332
681.807	-0.02332
682.128	-0.02332
682.45	-0.02332
682.772	-0.02332
683.094	-0.02332
683.415	-0.02332
683.737	-0.02332
684.059	-0.02332
684.38	-0.02332
684.702	-0.02332
685.023	-0.02332
685.344	-0.02333
685.666	-0.02333
685.987	-0.02333
686.308	-0.02332
686.629	-0.02332
686.95	-0.02332
687.272	-0.02332
687.593	-0.02332
687.914	-0.02332
688.235	-0.02332
688.555	-0.02332
688.876	-0.02332
689.197	-0.02332
689.518	-0.02332
689.839	-0.02332
690.159	-0.02332
690.48	-0.02332
690.8	-0.02332
691.121	-0.02332
691.441	-0.02332
691.762	-0.02332
692.082	-0.02332
692.402	-0.02332
692.723	-0.02332
693.043	-0.02332
693.363	-0.02332
693.683	-0.02332
694.003	-0.02332
694.323	-0.02332
694.643	-0.02332
694.963	-0.02332
695.283	-0.02332
695.603	-0.02332
695.923	-0.02332
696.243	-0.02332
696.562	-0.02332
696.882	-0.02332
697.202	-0.02332
697.521	-0.02332
697.841	-0.02333
698.16	-0.02333
698.479	-0.02332
698.799	-0.02333
699.118	-0.02333
699.437	-0.02333
699.757	-0.02333
700.076	-0.02332
700.395	-0.02333
700.714	-0.02333
701.033	-0.02332
701.352	-0.02332
701.671	-0.02332
701.99	-0.02332
702.308	-0.02332
702.627	-0.02332
702.946	-0.02332
703.265	-0.02332
703.583	-0.02332
703.902	-0.02332
704.22	-0.02332
704.539	-0.02332
704.857	-0.02332
705.176	-0.02332
705.494	-0.02332
705.812	-0.02332
706.131	-0.02332
706.449	-0.02332
706.767	-0.02332
707.085	-0.02332
707.403	-0.02332
707.721	-0.02332
708.039	-0.02332
708.357	-0.02332
708.675	-0.02332
708.993	-0.02332
709.31	-0.02332
709.628	-0.02332
709.946	-0.02332
710.263	-0.02332
710.581	-0.02332
710.898	-0.02332
711.216	-0.02332
711.533	-0.02332
711.851	-0.02332
712.168	-0.02332
712.485	-0.02333
712.802	-0.02333
713.12	-0.02333
713.437	-0.02333
713.754	-0.02333
714.071	-0.02332
714.388	-0.02332
714.705	-0.02332
715.022	-0.02332
715.338	-0.02332
715.655	-0.02332
715.972	-0.02333
716.289	-0.02333
716.605	-0.02333
716.922	-0.02333
717.238	-0.02333
717.555	-0.02333
717.871	-0.02333
718.188	-0.02333
718.504	-0.02332
718.82	-0.02333
719.136	-0.02333
719.453	-0.02333
719.769	-0.02333
720.085	-0.02333
720.401	-0.02333
720.717	-0.02333
721.033	-0.02333
721.349	-0.02333
721.665	-0.02332
721.98	-0.02332
722.296	-0.02332
722.612	-0.02332
722.927	-0.02332
723.243	-0.02332
723.559	-0.02332
723.874	-0.02333
724.19	-0.02333
724.505	-0.02333
724.82	-0.02332
725.136	-0.02332
725.451	-0.02332
725.766	-0.02332
726.081	-0.02332
726.396	-0.02332
726.711	-0.02332
727.026	-0.02332
727.341	-0.02332
727.656	-0.02332
727.971	-0.02332
728.286	-0.02332
728.601	-0.02332
728.916	-0.02332
729.23	-0.02332
729.545	-0.02332
729.859	-0.02332
730.174	-0.02331
730.488	-0.02331
730.803	-0.02331
731.117	-0.02331
731.431	-0.02332
731.746	-0.02332
732.06	-0.02332
732.374	-0.02332
732.688	-0.02332
733.002	-0.02332
733.316	-0.02332
733.63	-0.02332
733.944	-0.02332
734.258	-0.02332
734.572	-0.02332
734.886	-0.02332
735.199	-0.02332
735.513	-0.02332
735.827	-0.02331
736.14	-0.02331
736.454	-0.02331
736.767	-0.02331
737.081	-0.02331
737.394	-0.02332
737.708	-0.02332
738.021	-0.02332
738.334	-0.02332
738.647	-0.02332
738.96	-0.02332
739.273	-0.02332
739.587	-0.02332
739.9	-0.02332
740.212	-0.02332
740.525	-0.02332
740.838	-0.02332
741.151	-0.02332
741.464	-0.02333
741.776	-0.02332
742.089	-0.02332
742.402	-0.02332
742.714	-0.02332
743.027	-0.02332
743.339	-0.02332
743.651	-0.02332
743.964	-0.02332
744.276	-0.02332
744.588	-0.02332
744.901	-0.02332
745.213	-0.02332
745.525	-0.02332
745.837	-0.02332
746.149	-0.02332
746.461	-0.02332
746.773	-0.02332
747.085	-0.02332
747.396	-0.02332
747.708	-0.02332
748.02	-0.02332
748.331	-0.02332
748.643	-0.02332
748.955	-0.02332
749.266	-0.02332
749.577	-0.02332
749.889	-0.02332
750.2	-0.02332
750.512	-0.02332
750.823	-0.02332
751.134	-0.02332
751.445	-0.02332
751.756	-0.02332
752.067	-0.02332
752.378	-0.02332
752.689	-0.02332
753	-0.02332
753.311	-0.02331
753.622	-0.02331
753.932	-0.02332
754.243	-0.02332
754.554	-0.02331
754.864	-0.02332
755.175	-0.02332
755.485	-0.02332
755.796	-0.02332
756.106	-0.02332
756.417	-0.02332
756.727	-0.02332
757.037	-0.02332
757.347	-0.02332
757.658	-0.02332
757.968	-0.02332
758.278	-0.02332
758.588	-0.02332
758.898	-0.02332
759.208	-0.02332
759.517	-0.02332
759.827	-0.02332
760.137	-0.02332
760.447	-0.02332
760.756	-0.02332
761.066	-0.02332
761.375	-0.02332
761.685	-0.02332
761.994	-0.02332
762.304	-0.02332
762.613	-0.02331
762.922	-0.02332
763.232	-0.02332
763.541	-0.02332
763.85	-0.02332
764.159	-0.02332
764.468	-0.02332
764.777	-0.02332
765.086	-0.02332
765.395	-0.02332
765.704	-0.02332
766.013	-0.02332
766.321	-0.02332
766.63	-0.02332
766.939	-0.02332
767.247	-0.02332
767.556	-0.02331
767.864	-0.02331
768.173	-0.02331
768.481	-0.02332
768.789	-0.02331
769.098	-0.02331
769.406	-0.02332
769.714	-0.02331
770.022	-0.02332
770.33	-0.02332
770.638	-0.02331
770.946	-0.02331
771.254	-0.02332
771.562	-0.02332
771.87	-0.02332
772.178	-0.02332
772.486	-0.02332
772.793	-0.02332
773.101	-0.02332
773.408	-0.02332
773.716	-0.02332
774.023	-0.02332
774.331	-0.02332
774.638	-0.02331
774.946	-0.02331
775.253	-0.02331
775.56	-0.02332
775.867	-0.02332
776.174	-0.02332
776.481	-0.02332
776.788	-0.02332
777.095	-0.02332
777.402	-0.02332
777.709	-0.02332
778.016	-0.02332
778.323	-0.02332
778.63	-0.02332
778.936	-0.02332
779.243	-0.02332
779.549	-0.02332
779.856	-0.02332
780.162	-0.02333
780.469	-0.02333
780.775	-0.02333
781.082	-0.02332
781.388	-0.02332
781.694	-0.02332
782	-0.02332
782.306	-0.02332
782.612	-0.02332
782.918	-0.02332
783.224	-0.02333
783.53	-0.02332
783.836	-0.02332
784.142	-0.02332
784.448	-0.02332
784.753	-0.02332
785.059	-0.02332
785.365	-0.02332
785.67	-0.02332
785.976	-0.02332
786.281	-0.02333
786.586	-0.02333
786.892	-0.02332
787.197	-0.02333
787.502	-0.02333
787.808	-0.02333
788.113	-0.02333
788.418	-0.02332
788.723	-0.02332
789.028	-0.02332
789.333	-0.02332
789.638	-0.02332
789.942	-0.02332
790.247	-0.02331
790.552	-0.02332
790.857	-0.02331
791.161	-0.02331
791.466	-0.02331
791.77	-0.02332
792.075	-0.02332
792.379	-0.02332
792.684	-0.02332
792.988	-0.02331
793.292	-0.02332
793.597	-0.02332
793.901	-0.02332
794.205	-0.02332
794.509	-0.02332
794.813	-0.02331
795.117	-0.02332
795.421	-0.02332
795.725	-0.02332
796.029	-0.02332
796.332	-0.02332
796.636	-0.02332
796.94	-0.02332
797.243	-0.02332
797.547	-0.02332
797.85	-0.02332
798.154	-0.02332
798.457	-0.02332
798.761	-0.02332
799.064	-0.02332
799.367	-0.02332
799.67	-0.02332
799.973	-0.02332
800.277	-0.02332
800.58	-0.02332
800.883	-0.02332
801.186	-0.02332
801.488	-0.02332
801.791	-0.02332
802.094	-0.02332
802.397	-0.02332
802.699	-0.02332
803.002	-0.02332
803.305	-0.02332
803.607	-0.02332
803.91	-0.02332
804.212	-0.02332
804.515	-0.02332
804.817	-0.02332
805.119	-0.02332
805.421	-0.02332
805.724	-0.02331
806.026	-0.02331
806.328	-0.02331
806.63	-0.02331
806.932	-0.02331
807.234	-0.02331
807.535	-0.02332
807.837	-0.02332
808.139	-0.02332
808.441	-0.02332
808.742	-0.02332
809.044	-0.02332
809.346	-0.02332
809.647	-0.02332
809.948	-0.02332
810.25	-0.02332
810.551	-0.02332
810.853	-0.02332
811.154	-0.02332
811.455	-0.02332
811.756	-0.02332
812.057	-0.02332
812.358	-0.02333
812.659	-0.02333
812.96	-0.02333
813.261	-0.02333
813.562	-0.02333
813.863	-0.02333
814.163	-0.02333
814.464	-0.02332
814.765	-0.02332
815.065	-0.02332
815.366	-0.02332
815.666	-0.02332
815.967	-0.02332
816.267	-0.02331
816.567	-0.02332
816.868	-0.02332
817.168	-0.02332
817.468	-0.02283
817.768	-0.02211
818.068	-0.0211
818.368	-0.01996
818.668	-0.01878
818.968	-0.01704
819.268	-0.01469
819.568	-0.01255
819.867	-0.01074
820.167	-0.00878
820.467	-0.00677
820.766	-0.00422
821.066	-0.00131
821.365	0.00081
821.665	0.00337
821.964	0.00662
822.263	0.00912
822.563	0.0127
822.862	0.01614
823.161	0.01916
823.46	0.02272
823.759	0.02589
824.058	0.02877
824.357	0.03238
824.656	0.03621
824.955	0.03996
825.254	0.04411
825.552	0.04765
825.851	0.0514
826.15	0.05626
826.448	0.06198
826.747	0.06691
827.045	0.07121
827.344	0.07524
827.642	0.08008
827.941	0.08612
828.239	0.0919
828.537	0.09675
828.835	0.10178
829.133	0.10688
829.432	0.11187
829.73	0.11692
830.028	0.12103
830.325	0.12476
830.623	0.12827
830.921	0.13147
831.219	0.13489
831.517	0.13871
831.814	0.14199
832.112	0.14544
832.409	0.14861
832.707	0.15155
833.004	0.15407
833.302	0.15802
833.599	0.16127
833.896	0.16481
834.194	0.16718
834.491	0.16917
834.788	0.17168
835.085	0.17442
835.382	0.17591
835.679	0.17706
835.976	0.17835
836.273	0.17968
836.57	0.18152
836.866	0.18313
837.163	0.18361
837.46	0.18455
837.756	0.18648
838.053	0.18752
838.349	0.18893
838.646	0.18959
838.942	0.1897
839.239	0.19097
839.535	0.19209
839.831	0.19236
840.127	0.19314
840.423	0.1936
840.72	0.19458
841.016	0.19579
841.312	0.19668
841.607	0.19708
841.903	0.19761
842.199	0.19739
842.495	0.19757
842.791	0.1976
843.086	0.19799
843.382	0.19879
843.677	0.20102
843.973	0.20279
844.268	0.2053
844.564	0.20693
844.859	0.20878
845.154	0.21073
845.45	0.21276
845.745	0.21319
846.04	0.2142
846.335	0.21579
846.63	0.21766
846.925	0.21808
847.22	0.21962
847.515	0.22146
847.81	0.22225
848.104	0.2236
848.399	0.22465
848.694	0.22825
848.988	0.23254
849.283	0.23692
849.578	0.23963
849.872	0.24492
850.166	0.24953
850.461	0.25539
850.755	0.25962
851.049	0.26402
851.343	0.26838
851.638	0.27396
851.932	0.27691
852.226	0.2806
852.52	0.28867
852.814	0.29474
853.107	0.30392
853.401	0.31505
853.695	0.32681
853.989	0.34193
854.282	0.35439
854.576	0.36214
854.869	0.37923
855.163	0.39485
855.456	0.40608
855.75	0.42377
856.043	0.44395
856.336	0.46976
856.63	0.50264
856.923	0.5237
857.216	0.55635
857.509	0.5891
857.802	0.61685
858.095	0.65575
858.388	0.70855
858.681	0.7767
858.974	0.86798
859.266	0.96634
859.559	1.10281
859.852	1.28989
860.144	1.62374
860.437	-0
860.729	-0
861.022	-0
861.314	-0
861.606	-0
861.899	-0
862.191	-0
862.483	-0
862.775	-0
863.067	-0
863.359	-0
863.651	-0
863.943	-0
864.235	-0
864.527	-0
864.819	-0
865.11	-0
865.402	-0
865.693	-0
865.985	-0
866.276	-0
866.568	-0
866.859	-0
867.151	-0
867.442	-0
867.733	-0
868.024	-0
868.315	-0
868.606	-0
868.897	-0
869.188	-0
869.479	-0
869.77	-0
870.061	-0
870.351	-0
870.642	-0
870.933	-0
871.223	-0
871.514	-0
871.804	-0
872.095	-0
872.385	-0
872.675	-0
