Data from 72h-ambient_CB-1e-7_Absorbance_09-25-44-380.txt Node
Date: Mon Aug 21 09:25:44 EDT 2023
User: UV-vis
Spectrometer: FLMS04918
Trigger mode: 0
Integration Time (sec): 1.000000E-1
Scans to average: 3
Electric dark correction enabled: true
Nonlinearity correction enabled: false
Boxcar width: 3
XAxis mode: Wavelengths
Number of Pixels in Spectrum: 2048
>>>>>Begin Spectral Data<<<<<
179.23	0.39026
179.611	0.41644
179.992	0.43764
180.373	0.44049
180.754	0.42232
181.134	0.82538
181.515	-0
181.896	-0
182.276	-0
182.657	-0
183.038	-0
183.418	-0
183.799	0.04042
184.179	0.84939
184.56	-0
184.94	-0
185.32	-0
185.701	-0
186.081	-0
186.461	-0.85626
186.842	0.27865
187.222	0.25108
187.602	0.24809
187.982	0.24645
188.362	0.24246
188.742	0.24361
189.122	0.24357
189.502	0.24227
189.882	0.24072
190.262	0.24019
190.642	0.24012
191.022	0.24113
191.402	0.24009
191.781	0.23975
192.161	0.24073
192.541	0.24158
192.92	0.24176
193.3	0.24009
193.68	0.24083
194.059	0.24102
194.439	0.24143
194.818	0.24113
195.198	0.24
195.577	0.23898
195.957	0.24081
196.336	0.23906
196.715	0.23924
197.094	0.23787
197.474	0.23758
197.853	0.23765
198.232	0.23758
198.611	0.23503
198.99	0.23509
199.369	0.23436
199.748	0.23424
200.127	0.23469
200.506	0.23514
200.885	0.23703
201.264	0.23825
201.643	0.24011
202.022	0.24073
202.401	0.24104
202.779	0.24196
203.158	0.2416
203.537	0.24107
203.915	0.24266
204.294	0.24247
204.673	0.24284
205.051	0.24381
205.43	0.24155
205.808	0.24194
206.187	0.24204
206.565	0.2406
206.943	0.24086
207.322	0.24019
207.7	0.2392
208.078	0.24071
208.456	0.24035
208.835	0.2389
209.213	0.23657
209.591	0.2356
209.969	0.23498
210.347	0.23514
210.725	0.23559
211.103	0.23515
211.481	0.23535
211.859	0.23791
212.237	0.23761
212.614	0.2371
212.992	0.23565
213.37	0.23511
213.748	0.23453
214.125	0.23604
214.503	0.23571
214.881	0.2363
215.258	0.23764
215.636	0.23869
216.013	0.23867
216.391	0.24066
216.768	0.23945
217.145	0.24032
217.523	0.24019
217.9	0.23945
218.277	0.23999
218.655	0.23875
219.032	0.23807
219.409	0.23748
219.786	0.23555
220.163	0.23623
220.54	0.23578
220.917	0.23579
221.294	0.23635
221.671	0.23733
222.048	0.23732
222.425	0.2385
222.802	0.23738
223.179	0.23831
223.556	0.23856
223.932	0.23836
224.309	0.23771
224.686	0.23765
225.062	0.23771
225.439	0.23787
225.815	0.23907
226.192	0.23908
226.568	0.23894
226.945	0.23976
227.321	0.24045
227.698	0.24009
228.074	0.24033
228.45	0.23852
228.827	0.23793
229.203	0.23764
229.579	0.23591
229.955	0.23673
230.331	0.23657
230.707	0.23537
231.083	0.23637
231.46	0.23568
231.835	0.23673
232.211	0.23693
232.587	0.23525
232.963	0.23548
233.339	0.23828
233.715	0.23734
234.091	0.23862
234.466	0.23863
234.842	0.23951
235.218	0.23985
235.593	0.23983
235.969	0.23787
236.344	0.23866
236.72	0.23895
237.095	0.23751
237.471	0.23862
237.846	0.23975
238.222	0.23956
238.597	0.24158
238.972	0.2421
239.348	0.24034
239.723	0.24167
240.098	0.23975
240.473	0.23904
240.848	0.23909
241.223	0.23772
241.598	0.23727
241.973	0.2377
242.348	0.23842
242.723	0.23853
243.098	0.23898
243.473	0.23851
243.848	0.23898
244.223	0.2385
244.597	0.23931
244.972	0.23975
245.347	0.23831
245.721	0.23716
246.096	0.2373
246.47	0.23692
246.845	0.23723
247.219	0.23788
247.594	0.23555
247.968	0.23714
248.343	0.23723
248.717	0.23764
249.091	0.23734
249.466	0.23673
249.84	0.23599
250.214	0.23618
250.588	0.23596
250.962	0.23602
251.336	0.23476
251.71	0.23421
252.084	0.23403
252.458	0.23376
252.832	0.23445
253.206	0.23388
253.58	0.23336
253.954	0.23486
254.328	0.2357
254.702	0.23617
255.075	0.23516
255.449	0.23352
255.823	0.23337
256.196	0.23495
256.57	0.2349
256.943	0.2333
257.317	0.23342
257.69	0.23488
258.064	0.23493
258.437	0.23581
258.81	0.23545
259.184	0.23489
259.557	0.23643
259.93	0.23706
260.303	0.23701
260.677	0.23781
261.05	0.2384
261.423	0.2386
261.796	0.23887
262.169	0.23963
262.542	0.23872
262.915	0.23907
263.288	0.23926
263.661	0.23803
264.033	0.23838
264.406	0.23834
264.779	0.23728
265.152	0.23718
265.524	0.23637
265.897	0.23711
266.27	0.23777
266.642	0.23704
267.015	0.2378
267.387	0.23796
267.76	0.23773
268.132	0.23665
268.504	0.23559
268.877	0.23418
269.249	0.23375
269.621	0.23318
269.994	0.23312
270.366	0.23405
270.738	0.2356
271.11	0.23652
271.482	0.23661
271.854	0.2379
272.226	0.23822
272.598	0.23792
272.97	0.23703
273.342	0.23671
273.714	0.23585
274.086	0.23703
274.458	0.2364
274.829	0.237
275.201	0.23744
275.573	0.23715
275.944	0.2368
276.316	0.23738
276.688	0.23782
277.059	0.23788
277.431	0.23808
277.802	0.2378
278.173	0.23879
278.545	0.23953
278.916	0.23938
279.287	0.23878
279.659	0.23994
280.03	0.24006
280.401	0.24218
280.772	0.24364
281.143	0.24471
281.515	0.24608
281.886	0.24582
282.257	0.24343
282.628	0.23684
282.998	0.2251
283.369	0.20427
283.74	0.17476
284.111	0.14015
284.482	0.10331
284.853	0.06963
285.223	0.04026
285.594	0.01446
285.965	-0.00439
286.335	-0.01581
286.706	-0.02132
287.076	-0.02191
287.447	-0.02191
287.817	-0.02191
288.188	-0.02191
288.558	-0.02191
288.928	-0.02191
289.299	-0.02191
289.669	-0.02191
290.039	-0.02191
290.409	-0.02191
290.779	-0.02191
291.149	-0.02191
291.52	-0.02191
291.89	-0.02191
292.26	-0.02191
292.629	-0.02191
292.999	-0.02191
293.369	-0.02191
293.739	-0.02191
294.109	-0.02191
294.479	-0.02191
294.848	-0.02191
295.218	-0.02191
295.588	-0.02191
295.957	-0.02191
296.327	-0.02191
296.696	-0.02191
297.066	-0.02191
297.435	-0.02191
297.805	-0.02191
298.174	-0.02191
298.544	-0.02191
298.913	-0.02191
299.282	-0.02191
299.651	-0.02191
300.021	-0.02191
300.39	-0.02191
300.759	-0.02191
301.128	-0.02191
301.497	-0.02191
301.866	-0.02191
302.235	-0.02191
302.604	-0.02191
302.973	-0.02191
303.342	-0.02191
303.71	-0.02191
304.079	-0.02192
304.448	-0.02192
304.817	-0.02192
305.185	-0.02192
305.554	-0.02191
305.923	-0.02191
306.291	-0.02191
306.66	-0.02191
307.028	-0.02191
307.397	-0.02191
307.765	-0.02191
308.133	-0.02191
308.502	-0.02191
308.87	-0.02191
309.238	-0.02191
309.606	-0.02191
309.975	-0.02191
310.343	-0.02191
310.711	-0.02191
311.079	-0.02191
311.447	-0.02191
311.815	-0.02191
312.183	-0.02191
312.551	-0.02191
312.919	-0.02191
313.286	-0.02191
313.654	-0.02191
314.022	-0.02192
314.39	-0.02192
314.757	-0.02191
315.125	-0.02191
315.492	-0.02191
315.86	-0.02191
316.228	-0.02191
316.595	-0.02191
316.962	-0.02191
317.33	-0.02191
317.697	-0.02191
318.065	-0.02191
318.432	-0.02191
318.799	-0.02191
319.166	-0.02191
319.534	-0.02191
319.901	-0.02191
320.268	-0.02191
320.635	-0.02191
321.002	-0.02191
321.369	-0.02191
321.736	-0.02191
322.103	-0.02192
322.47	-0.02192
322.836	-0.02192
323.203	-0.02192
323.57	-0.02192
323.937	-0.02192
324.303	-0.02192
324.67	-0.02192
325.037	-0.02191
325.403	-0.02191
325.77	-0.02191
326.136	-0.02191
326.503	-0.02191
326.869	-0.02191
327.235	-0.02191
327.602	-0.02191
327.968	-0.02191
328.334	-0.02191
328.7	-0.02191
329.067	-0.02191
329.433	-0.02191
329.799	-0.02191
330.165	-0.02191
330.531	-0.02192
330.897	-0.02192
331.263	-0.02192
331.629	-0.02192
331.995	-0.02192
332.36	-0.02192
332.726	-0.02192
333.092	-0.02192
333.458	-0.02192
333.823	-0.02192
334.189	-0.02192
334.554	-0.02192
334.92	-0.02192
335.286	-0.02191
335.651	-0.02191
336.016	-0.02191
336.382	-0.02191
336.747	-0.02191
337.113	-0.02191
337.478	-0.02191
337.843	-0.02191
338.208	-0.02191
338.573	-0.02191
338.939	-0.02191
339.304	-0.02192
339.669	-0.02191
340.034	-0.02191
340.399	-0.02191
340.764	-0.02191
341.129	-0.02191
341.493	-0.02191
341.858	-0.02191
342.223	-0.02191
342.588	-0.02192
342.952	-0.02192
343.317	-0.02192
343.682	-0.02192
344.046	-0.02192
344.411	-0.02192
344.775	-0.02192
345.14	-0.02192
345.504	-0.02192
345.869	-0.02192
346.233	-0.02191
346.597	-0.02191
346.962	-0.02191
347.326	-0.02191
347.69	-0.02191
348.054	-0.02191
348.418	-0.02191
348.782	-0.02191
349.146	-0.02191
349.51	-0.02191
349.874	-0.02191
350.238	-0.02191
350.602	-0.02191
350.966	-0.02191
351.33	-0.02191
351.693	-0.02191
352.057	-0.02191
352.421	-0.02191
352.784	-0.02191
353.148	-0.02191
353.512	-0.02191
353.875	-0.02191
354.239	-0.02191
354.602	-0.02191
354.966	-0.02191
355.329	-0.02191
355.692	-0.02191
356.056	-0.02192
356.419	-0.02192
356.782	-0.02192
357.145	-0.02192
357.508	-0.02191
357.871	-0.02191
358.234	-0.02191
358.597	-0.02191
358.96	-0.02191
359.323	-0.02191
359.686	-0.02191
360.049	-0.02191
360.412	-0.02191
360.775	-0.02192
361.137	-0.02191
361.5	-0.02192
361.863	-0.02192
362.225	-0.02192
362.588	-0.02192
362.951	-0.02192
363.313	-0.02192
363.675	-0.02192
364.038	-0.02192
364.4	-0.02192
364.763	-0.02192
365.125	-0.02192
365.487	-0.02192
365.849	-0.02192
366.212	-0.02192
366.574	-0.02191
366.936	-0.02191
367.298	-0.02191
367.66	-0.02191
368.022	-0.02191
368.384	-0.02191
368.746	-0.02191
369.108	-0.02191
369.469	-0.02191
369.831	-0.02191
370.193	-0.02191
370.555	-0.02191
370.916	-0.02191
371.278	-0.02191
371.64	-0.02191
372.001	-0.02191
372.363	-0.02192
372.724	-0.02192
373.086	-0.02192
373.447	-0.02191
373.808	-0.02191
374.17	-0.02191
374.531	-0.02191
374.892	-0.02191
375.253	-0.02191
375.615	-0.02191
375.976	-0.02191
376.337	-0.02191
376.698	-0.02191
377.059	-0.02191
377.42	-0.02192
377.781	-0.02192
378.141	-0.02192
378.502	-0.02192
378.863	-0.02192
379.224	-0.02192
379.585	-0.02192
379.945	-0.02191
380.306	-0.02192
380.666	-0.02191
381.027	-0.02192
381.388	-0.02192
381.748	-0.02191
382.108	-0.02191
382.469	-0.02191
382.829	-0.02191
383.19	-0.02191
383.55	-0.02191
383.91	-0.02191
384.27	-0.02191
384.63	-0.02191
384.991	-0.02192
385.351	-0.02191
385.711	-0.02192
386.071	-0.02192
386.431	-0.02192
386.791	-0.02192
387.15	-0.02192
387.51	-0.02192
387.87	-0.02192
388.23	-0.02192
388.589	-0.02192
388.949	-0.02192
389.309	-0.02192
389.668	-0.02192
390.028	-0.02192
390.387	-0.02192
390.747	-0.02192
391.106	-0.02192
391.466	-0.02192
391.825	-0.02192
392.184	-0.02192
392.544	-0.02192
392.903	-0.02192
393.262	-0.02191
393.621	-0.02191
393.98	-0.02191
394.339	-0.02191
394.698	-0.02191
395.057	-0.02191
395.416	-0.02191
395.775	-0.02191
396.134	-0.02191
396.493	-0.02191
396.852	-0.02191
397.211	-0.02192
397.569	-0.02191
397.928	-0.02192
398.287	-0.02192
398.645	-0.02192
399.004	-0.02192
399.362	-0.02192
399.721	-0.02191
400.079	-0.02191
400.438	-0.02191
400.796	-0.02191
401.154	-0.02191
401.512	-0.02191
401.871	-0.02191
402.229	-0.02191
402.587	-0.02191
402.945	-0.02191
403.303	-0.02191
403.661	-0.02191
404.019	-0.02191
404.377	-0.02191
404.735	-0.02191
405.093	-0.02191
405.451	-0.02192
405.808	-0.02192
406.166	-0.02192
406.524	-0.02192
406.882	-0.02192
407.239	-0.02192
407.597	-0.02192
407.954	-0.02192
408.312	-0.02192
408.669	-0.02192
409.027	-0.02192
409.384	-0.02192
409.741	-0.02192
410.099	-0.02192
410.456	-0.02192
410.813	-0.02192
411.17	-0.02192
411.527	-0.02192
411.884	-0.02191
412.242	-0.02191
412.599	-0.02191
412.956	-0.02192
413.312	-0.02192
413.669	-0.02192
414.026	-0.02192
414.383	-0.02192
414.74	-0.02192
415.096	-0.02192
415.453	-0.02191
415.81	-0.02191
416.166	-0.02191
416.523	-0.02191
416.879	-0.02192
417.236	-0.02192
417.592	-0.02191
417.949	-0.02192
418.305	-0.02192
418.661	-0.02191
419.018	-0.02191
419.374	-0.02191
419.73	-0.02191
420.086	-0.02192
420.442	-0.02191
420.798	-0.02191
421.154	-0.02191
421.51	-0.02191
421.866	-0.02191
422.222	-0.02191
422.578	-0.02191
422.934	-0.02191
423.29	-0.02191
423.646	-0.02192
424.001	-0.02192
424.357	-0.02192
424.713	-0.02192
425.068	-0.02192
425.424	-0.02192
425.779	-0.02192
426.135	-0.02192
426.49	-0.02192
426.845	-0.02192
427.201	-0.02192
427.556	-0.02191
427.911	-0.02192
428.266	-0.02192
428.622	-0.02192
428.977	-0.02191
429.332	-0.02191
429.687	-0.02191
430.042	-0.02191
430.397	-0.02191
430.752	-0.02191
431.107	-0.02192
431.461	-0.02192
431.816	-0.02192
432.171	-0.02192
432.526	-0.02192
432.88	-0.02192
433.235	-0.02192
433.59	-0.02192
433.944	-0.02192
434.299	-0.02192
434.653	-0.02192
435.008	-0.02192
435.362	-0.02192
435.716	-0.02192
436.071	-0.02192
436.425	-0.02192
436.779	-0.02192
437.133	-0.02192
437.487	-0.02192
437.841	-0.02192
438.195	-0.02193
438.549	-0.02192
438.903	-0.02192
439.257	-0.02192
439.611	-0.02192
439.965	-0.02191
440.319	-0.02191
440.673	-0.02191
441.026	-0.02191
441.38	-0.02191
441.734	-0.02191
442.087	-0.02192
442.441	-0.02192
442.794	-0.02192
443.148	-0.02192
443.501	-0.02192
443.855	-0.02192
444.208	-0.02192
444.561	-0.02192
444.915	-0.02192
445.268	-0.02192
445.621	-0.02192
445.974	-0.02192
446.327	-0.02192
446.68	-0.02192
447.033	-0.02192
447.386	-0.02192
447.739	-0.02192
448.092	-0.02192
448.445	-0.02192
448.798	-0.02192
449.15	-0.02192
449.503	-0.02192
449.856	-0.02192
450.209	-0.02192
450.561	-0.02192
450.914	-0.02192
451.266	-0.02192
451.619	-0.02192
451.971	-0.02192
452.323	-0.02192
452.676	-0.02192
453.028	-0.02192
453.38	-0.02192
453.733	-0.02192
454.085	-0.02192
454.437	-0.02192
454.789	-0.02192
455.141	-0.02192
455.493	-0.02192
455.845	-0.02192
456.197	-0.02192
456.549	-0.02193
456.901	-0.02192
457.253	-0.02192
457.604	-0.02193
457.956	-0.02193
458.308	-0.02192
458.659	-0.02192
459.011	-0.02192
459.362	-0.02192
459.714	-0.02193
460.065	-0.02192
460.417	-0.02192
460.768	-0.02192
461.12	-0.02192
461.471	-0.02192
461.822	-0.02192
462.173	-0.02192
462.525	-0.02192
462.876	-0.02192
463.227	-0.02192
463.578	-0.02192
463.929	-0.02192
464.28	-0.02192
464.631	-0.02192
464.982	-0.02192
465.332	-0.02192
465.683	-0.02192
466.034	-0.02192
466.385	-0.02192
466.735	-0.02192
467.086	-0.02192
467.437	-0.02192
467.787	-0.02192
468.138	-0.02192
468.488	-0.02192
468.839	-0.02192
469.189	-0.02192
469.539	-0.02192
469.89	-0.02192
470.24	-0.02192
470.59	-0.02192
470.94	-0.02192
471.29	-0.02192
471.64	-0.02192
471.99	-0.02191
472.34	-0.02192
472.69	-0.02191
473.04	-0.02192
473.39	-0.02192
473.74	-0.02192
474.09	-0.02192
474.439	-0.02192
474.789	-0.02192
475.139	-0.02192
475.488	-0.02192
475.838	-0.02192
476.188	-0.02192
476.537	-0.02192
476.886	-0.02192
477.236	-0.02192
477.585	-0.02192
477.935	-0.02192
478.284	-0.02192
478.633	-0.02192
478.982	-0.02192
479.331	-0.02192
479.68	-0.02192
480.03	-0.02192
480.379	-0.02192
480.728	-0.02192
481.076	-0.02192
481.425	-0.02192
481.774	-0.02192
482.123	-0.02192
482.472	-0.02192
482.821	-0.02192
483.169	-0.02192
483.518	-0.02192
483.866	-0.02192
484.215	-0.02192
484.563	-0.02192
484.912	-0.02192
485.26	-0.02192
485.609	-0.02192
485.957	-0.02192
486.305	-0.02192
486.654	-0.02192
487.002	-0.02192
487.35	-0.02192
487.698	-0.02192
488.046	-0.02192
488.394	-0.02191
488.742	-0.02191
489.09	-0.02191
489.438	-0.02191
489.786	-0.02192
490.134	-0.02192
490.482	-0.02192
490.829	-0.02192
491.177	-0.02193
491.525	-0.02193
491.872	-0.02192
492.22	-0.02192
492.567	-0.02192
492.915	-0.02192
493.262	-0.02192
493.61	-0.02192
493.957	-0.02192
494.304	-0.02192
494.652	-0.02192
494.999	-0.02192
495.346	-0.02192
495.693	-0.02192
496.04	-0.02192
496.387	-0.02192
496.734	-0.02192
497.081	-0.02192
497.428	-0.02192
497.775	-0.02192
498.122	-0.02192
498.469	-0.02192
498.816	-0.02192
499.162	-0.02192
499.509	-0.02192
499.856	-0.02192
500.202	-0.02192
500.549	-0.02192
500.895	-0.02192
501.242	-0.02193
501.588	-0.02193
501.935	-0.02193
502.281	-0.02192
502.627	-0.02192
502.973	-0.02192
503.32	-0.02192
503.666	-0.02192
504.012	-0.02192
504.358	-0.02192
504.704	-0.02192
505.05	-0.02192
505.396	-0.02192
505.742	-0.02192
506.088	-0.02192
506.433	-0.02192
506.779	-0.02192
507.125	-0.02192
507.471	-0.02192
507.816	-0.02192
508.162	-0.02192
508.507	-0.02192
508.853	-0.02192
509.198	-0.02192
509.544	-0.02192
509.889	-0.02192
510.234	-0.02192
510.58	-0.02192
510.925	-0.02192
511.27	-0.02193
511.615	-0.02192
511.96	-0.02192
512.306	-0.02192
512.651	-0.02193
512.996	-0.02193
513.341	-0.02192
513.685	-0.02192
514.03	-0.02193
514.375	-0.02192
514.72	-0.02193
515.065	-0.02193
515.409	-0.02193
515.754	-0.02193
516.099	-0.02193
516.443	-0.02193
516.788	-0.02193
517.132	-0.02192
517.476	-0.02192
517.821	-0.02192
518.165	-0.02192
518.51	-0.02192
518.854	-0.02192
519.198	-0.02192
519.542	-0.02192
519.886	-0.02192
520.23	-0.02192
520.574	-0.02192
520.918	-0.02192
521.262	-0.02192
521.606	-0.02192
521.95	-0.02192
522.294	-0.02192
522.638	-0.02192
522.981	-0.02192
523.325	-0.02192
523.669	-0.02192
524.012	-0.02192
524.356	-0.02192
524.699	-0.02192
525.043	-0.02192
525.386	-0.02192
525.73	-0.02193
526.073	-0.02193
526.416	-0.02193
526.76	-0.02193
527.103	-0.02193
527.446	-0.02193
527.789	-0.02193
528.132	-0.02192
528.475	-0.02192
528.818	-0.02192
529.161	-0.02192
529.504	-0.02192
529.847	-0.02192
530.19	-0.02192
530.532	-0.02192
530.875	-0.02192
531.218	-0.02192
531.56	-0.02192
531.903	-0.02192
532.246	-0.02192
532.588	-0.02192
532.93	-0.02192
533.273	-0.02192
533.615	-0.02192
533.958	-0.02193
534.3	-0.02192
534.642	-0.02192
534.984	-0.02192
535.326	-0.02192
535.669	-0.02193
536.011	-0.02193
536.353	-0.02192
536.695	-0.02192
537.037	-0.02192
537.378	-0.02192
537.72	-0.02192
538.062	-0.02192
538.404	-0.02192
538.746	-0.02192
539.087	-0.02192
539.429	-0.02192
539.77	-0.02192
540.112	-0.02192
540.454	-0.02191
540.795	-0.02192
541.136	-0.02192
541.478	-0.02192
541.819	-0.02192
542.16	-0.02192
542.502	-0.02192
542.843	-0.02192
543.184	-0.02192
543.525	-0.02192
543.866	-0.02192
544.207	-0.02192
544.548	-0.02192
544.889	-0.02192
545.23	-0.02192
545.571	-0.02192
545.911	-0.02192
546.252	-0.02192
546.593	-0.02192
546.934	-0.02192
547.274	-0.02192
547.615	-0.02192
547.955	-0.02192
548.296	-0.02192
548.636	-0.02192
548.977	-0.02192
549.317	-0.02192
549.657	-0.02192
549.997	-0.02192
550.338	-0.02192
550.678	-0.02192
551.018	-0.02192
551.358	-0.02192
551.698	-0.02192
552.038	-0.02192
552.378	-0.02192
552.718	-0.02192
553.058	-0.02192
553.398	-0.02192
553.737	-0.02192
554.077	-0.02192
554.417	-0.02192
554.756	-0.02192
555.096	-0.02192
555.435	-0.02192
555.775	-0.02192
556.114	-0.02192
556.454	-0.02192
556.793	-0.02192
557.133	-0.02192
557.472	-0.02192
557.811	-0.02192
558.15	-0.02192
558.489	-0.02192
558.829	-0.02192
559.168	-0.02192
559.507	-0.02192
559.846	-0.02192
560.184	-0.02192
560.523	-0.02192
560.862	-0.02192
561.201	-0.02192
561.54	-0.02192
561.878	-0.02192
562.217	-0.02192
562.556	-0.02192
562.894	-0.02193
563.233	-0.02193
563.571	-0.02192
563.91	-0.02192
564.248	-0.02192
564.586	-0.02192
564.925	-0.02192
565.263	-0.02192
565.601	-0.02192
565.939	-0.02192
566.277	-0.02192
566.616	-0.02192
566.954	-0.02192
567.292	-0.02192
567.63	-0.02192
567.967	-0.02192
568.305	-0.02192
568.643	-0.02192
568.981	-0.02192
569.319	-0.02192
569.656	-0.02192
569.994	-0.02193
570.331	-0.02192
570.669	-0.02193
571.006	-0.02193
571.344	-0.02193
571.681	-0.02192
572.019	-0.02192
572.356	-0.02192
572.693	-0.02192
573.03	-0.02192
573.368	-0.02192
573.705	-0.02192
574.042	-0.02192
574.379	-0.02192
574.716	-0.02193
575.053	-0.02193
575.39	-0.02193
575.727	-0.02193
576.063	-0.02193
576.4	-0.02193
576.737	-0.02193
577.074	-0.02192
577.41	-0.02192
577.747	-0.02192
578.083	-0.02192
578.42	-0.02192
578.756	-0.02192
579.093	-0.02192
579.429	-0.02192
579.766	-0.02192
580.102	-0.02192
580.438	-0.02192
580.774	-0.02192
581.11	-0.02193
581.446	-0.02193
581.782	-0.02193
582.119	-0.02193
582.454	-0.02192
582.79	-0.02192
583.126	-0.02192
583.462	-0.02192
583.798	-0.02192
584.134	-0.02192
584.469	-0.02193
584.805	-0.02193
585.141	-0.02193
585.476	-0.02193
585.812	-0.02192
586.147	-0.02192
586.482	-0.02192
586.818	-0.02192
587.153	-0.02192
587.488	-0.02192
587.824	-0.02192
588.159	-0.02192
588.494	-0.02192
588.829	-0.02193
589.164	-0.02193
589.499	-0.02192
589.834	-0.02192
590.169	-0.02192
590.504	-0.02192
590.839	-0.02192
591.174	-0.02192
591.508	-0.02192
591.843	-0.02192
592.178	-0.02192
592.512	-0.02192
592.847	-0.02192
593.181	-0.02192
593.516	-0.02192
593.85	-0.02193
594.185	-0.02192
594.519	-0.02192
594.853	-0.02192
595.187	-0.02192
595.522	-0.02192
595.856	-0.02192
596.19	-0.02192
596.524	-0.02192
596.858	-0.02192
597.192	-0.02192
597.526	-0.02192
597.86	-0.02192
598.194	-0.02192
598.527	-0.02192
598.861	-0.02192
599.195	-0.02192
599.528	-0.02192
599.862	-0.02192
600.196	-0.02192
600.529	-0.02192
600.863	-0.02192
601.196	-0.02192
601.529	-0.02192
601.863	-0.02192
602.196	-0.02192
602.529	-0.02192
602.862	-0.02192
603.196	-0.02192
603.529	-0.02192
603.862	-0.02192
604.195	-0.02192
604.528	-0.02192
604.861	-0.02192
605.193	-0.02191
605.526	-0.02192
605.859	-0.02192
606.192	-0.02192
606.524	-0.02192
606.857	-0.02192
607.19	-0.02192
607.522	-0.02192
607.855	-0.02192
608.187	-0.02192
608.52	-0.02192
608.852	-0.02192
609.184	-0.02192
609.517	-0.02192
609.849	-0.02192
610.181	-0.02192
610.513	-0.02192
610.845	-0.02192
611.177	-0.02192
611.509	-0.02192
611.841	-0.02192
612.173	-0.02192
612.505	-0.02191
612.837	-0.02191
613.169	-0.02192
613.5	-0.02192
613.832	-0.02192
614.164	-0.02192
614.495	-0.02192
614.827	-0.02192
615.158	-0.02192
615.49	-0.02192
615.821	-0.02192
616.152	-0.02192
616.484	-0.02192
616.815	-0.02192
617.146	-0.02192
617.477	-0.02192
617.808	-0.02192
618.14	-0.02191
618.471	-0.02191
618.802	-0.02191
619.133	-0.02191
619.463	-0.02192
619.794	-0.02191
620.125	-0.02192
620.456	-0.02192
620.787	-0.02192
621.117	-0.02192
621.448	-0.02192
621.778	-0.02191
622.109	-0.02192
622.439	-0.02191
622.77	-0.02192
623.1	-0.02192
623.43	-0.02192
623.761	-0.02192
624.091	-0.02192
624.421	-0.02192
624.751	-0.02192
625.081	-0.02192
625.412	-0.02192
625.742	-0.02192
626.072	-0.02192
626.401	-0.02192
626.731	-0.02192
627.061	-0.02191
627.391	-0.02191
627.721	-0.02191
628.05	-0.02191
628.38	-0.02191
628.71	-0.02191
629.039	-0.02192
629.369	-0.02192
629.698	-0.02192
630.028	-0.02192
630.357	-0.02192
630.686	-0.02192
631.015	-0.02192
631.345	-0.02192
631.674	-0.02192
632.003	-0.02192
632.332	-0.02192
632.661	-0.02192
632.99	-0.02192
633.319	-0.02191
633.648	-0.02191
633.977	-0.02191
634.306	-0.02191
634.634	-0.02192
634.963	-0.02192
635.292	-0.02192
635.62	-0.02192
635.949	-0.02192
636.277	-0.02192
636.606	-0.02192
636.934	-0.02192
637.263	-0.02192
637.591	-0.02192
637.919	-0.02191
638.248	-0.02191
638.576	-0.02191
638.904	-0.02191
639.232	-0.02191
639.56	-0.02191
639.888	-0.02191
640.216	-0.02191
640.544	-0.02191
640.872	-0.02191
641.2	-0.02191
641.528	-0.02192
641.855	-0.02192
642.183	-0.02192
642.511	-0.02192
642.838	-0.02192
643.166	-0.02192
643.493	-0.02192
643.821	-0.02192
644.148	-0.02192
644.475	-0.02192
644.803	-0.02192
645.13	-0.02192
645.457	-0.02192
645.784	-0.02192
646.112	-0.02192
646.439	-0.02192
646.766	-0.02192
647.093	-0.02192
647.42	-0.02192
647.746	-0.02192
648.073	-0.02192
648.4	-0.02192
648.727	-0.02191
649.053	-0.02191
649.38	-0.02192
649.707	-0.02192
650.033	-0.02192
650.36	-0.02192
650.686	-0.02192
651.013	-0.02192
651.339	-0.02192
651.665	-0.02192
651.992	-0.02192
652.318	-0.02192
652.644	-0.02192
652.97	-0.02192
653.296	-0.02192
653.622	-0.02192
653.948	-0.02192
654.274	-0.02192
654.6	-0.02192
654.926	-0.02191
655.252	-0.02191
655.578	-0.02191
655.903	-0.02191
656.229	-0.02191
656.555	-0.02191
656.88	-0.02191
657.206	-0.02192
657.531	-0.02191
657.857	-0.02192
658.182	-0.02192
658.507	-0.02192
658.833	-0.02192
659.158	-0.02192
659.483	-0.02192
659.808	-0.02192
660.133	-0.02192
660.458	-0.02191
660.783	-0.02192
661.108	-0.02192
661.433	-0.02191
661.758	-0.02191
662.083	-0.02191
662.408	-0.02191
662.732	-0.02191
663.057	-0.02191
663.382	-0.02191
663.706	-0.02192
664.031	-0.02192
664.355	-0.02192
664.68	-0.02192
665.004	-0.02192
665.328	-0.02192
665.653	-0.02191
665.977	-0.02191
666.301	-0.02191
666.625	-0.02191
666.949	-0.02191
667.273	-0.02191
667.597	-0.02191
667.921	-0.02191
668.245	-0.02191
668.569	-0.02191
668.893	-0.02191
669.217	-0.02191
669.54	-0.02191
669.864	-0.02191
670.188	-0.02191
670.511	-0.02191
670.835	-0.02191
671.158	-0.02191
671.482	-0.02191
671.805	-0.02191
672.128	-0.02192
672.452	-0.02192
672.775	-0.02191
673.098	-0.02191
673.421	-0.02191
673.744	-0.02191
674.068	-0.02191
674.391	-0.02191
674.714	-0.02192
675.036	-0.02192
675.359	-0.02192
675.682	-0.02192
676.005	-0.02192
676.328	-0.02192
676.65	-0.02192
676.973	-0.02192
677.295	-0.02191
677.618	-0.02191
677.94	-0.02191
678.263	-0.02191
678.585	-0.02191
678.908	-0.02192
679.23	-0.02192
679.552	-0.02192
679.874	-0.02191
680.196	-0.02191
680.519	-0.02191
680.841	-0.02191
681.163	-0.02191
681.485	-0.02191
681.807	-0.02192
682.128	-0.02192
682.45	-0.02192
682.772	-0.02192
683.094	-0.02192
683.415	-0.02192
683.737	-0.02191
684.059	-0.02191
684.38	-0.02191
684.702	-0.02192
685.023	-0.02192
685.344	-0.02192
685.666	-0.02192
685.987	-0.02192
686.308	-0.02192
686.629	-0.02192
686.95	-0.02191
687.272	-0.02191
687.593	-0.02191
687.914	-0.02191
688.235	-0.02191
688.555	-0.02191
688.876	-0.02191
689.197	-0.02191
689.518	-0.02191
689.839	-0.02192
690.159	-0.02191
690.48	-0.02191
690.8	-0.02191
691.121	-0.02191
691.441	-0.02191
691.762	-0.02191
692.082	-0.02191
692.402	-0.02191
692.723	-0.02192
693.043	-0.02191
693.363	-0.02191
693.683	-0.02192
694.003	-0.02191
694.323	-0.02191
694.643	-0.02191
694.963	-0.02191
695.283	-0.02191
695.603	-0.02191
695.923	-0.02191
696.243	-0.02191
696.562	-0.02191
696.882	-0.02191
697.202	-0.02192
697.521	-0.02192
697.841	-0.02192
698.16	-0.02192
698.479	-0.02192
698.799	-0.02192
699.118	-0.02192
699.437	-0.02192
699.757	-0.02192
700.076	-0.02192
700.395	-0.02192
700.714	-0.02192
701.033	-0.02192
701.352	-0.02192
701.671	-0.02192
701.99	-0.02191
702.308	-0.02191
702.627	-0.02191
702.946	-0.02191
703.265	-0.02191
703.583	-0.02192
703.902	-0.02191
704.22	-0.02192
704.539	-0.02191
704.857	-0.02192
705.176	-0.02192
705.494	-0.02191
705.812	-0.02191
706.131	-0.02191
706.449	-0.02191
706.767	-0.02191
707.085	-0.02191
707.403	-0.02191
707.721	-0.02191
708.039	-0.02191
708.357	-0.02191
708.675	-0.02191
708.993	-0.02191
709.31	-0.02191
709.628	-0.02191
709.946	-0.02191
710.263	-0.02191
710.581	-0.02191
710.898	-0.02191
711.216	-0.02192
711.533	-0.02191
711.851	-0.02191
712.168	-0.02192
712.485	-0.02192
712.802	-0.02192
713.12	-0.02192
713.437	-0.02192
713.754	-0.02192
714.071	-0.02192
714.388	-0.02191
714.705	-0.02191
715.022	-0.02191
715.338	-0.02191
715.655	-0.02192
715.972	-0.02192
716.289	-0.02192
716.605	-0.02192
716.922	-0.02192
717.238	-0.02192
717.555	-0.02192
717.871	-0.02192
718.188	-0.02192
718.504	-0.02192
718.82	-0.02192
719.136	-0.02192
719.453	-0.02192
719.769	-0.02192
720.085	-0.02192
720.401	-0.02192
720.717	-0.02192
721.033	-0.02192
721.349	-0.02192
721.665	-0.02192
721.98	-0.02192
722.296	-0.02192
722.612	-0.02192
722.927	-0.02192
723.243	-0.02192
723.559	-0.02192
723.874	-0.02192
724.19	-0.02192
724.505	-0.02192
724.82	-0.02192
725.136	-0.02192
725.451	-0.02192
725.766	-0.02192
726.081	-0.02191
726.396	-0.02191
726.711	-0.02191
727.026	-0.02191
727.341	-0.02192
727.656	-0.02192
727.971	-0.02192
728.286	-0.02192
728.601	-0.02192
728.916	-0.02192
729.23	-0.02191
729.545	-0.02191
729.859	-0.02191
730.174	-0.02191
730.488	-0.02191
730.803	-0.02191
731.117	-0.0219
731.431	-0.02191
731.746	-0.02191
732.06	-0.02191
732.374	-0.02191
732.688	-0.02191
733.002	-0.02192
733.316	-0.02192
733.63	-0.02192
733.944	-0.02192
734.258	-0.02191
734.572	-0.02191
734.886	-0.02191
735.199	-0.02191
735.513	-0.02191
735.827	-0.02191
736.14	-0.02191
736.454	-0.02191
736.767	-0.02191
737.081	-0.02191
737.394	-0.02191
737.708	-0.02191
738.021	-0.02191
738.334	-0.02191
738.647	-0.02191
738.96	-0.02191
739.273	-0.02191
739.587	-0.02191
739.9	-0.02191
740.212	-0.02192
740.525	-0.02191
740.838	-0.02192
741.151	-0.02192
741.464	-0.02192
741.776	-0.02191
742.089	-0.02192
742.402	-0.02191
742.714	-0.02191
743.027	-0.02192
743.339	-0.02191
743.651	-0.02191
743.964	-0.02191
744.276	-0.02191
744.588	-0.02192
744.901	-0.02192
745.213	-0.02191
745.525	-0.02191
745.837	-0.02191
746.149	-0.02191
746.461	-0.02191
746.773	-0.02191
747.085	-0.02191
747.396	-0.02191
747.708	-0.02191
748.02	-0.02192
748.331	-0.02191
748.643	-0.02192
748.955	-0.02192
749.266	-0.02192
749.577	-0.02191
749.889	-0.02192
750.2	-0.02191
750.512	-0.02191
750.823	-0.02191
751.134	-0.02191
751.445	-0.02191
751.756	-0.02191
752.067	-0.02191
752.378	-0.02191
752.689	-0.02191
753	-0.02191
753.311	-0.02191
753.622	-0.02191
753.932	-0.02191
754.243	-0.02191
754.554	-0.02191
754.864	-0.02191
755.175	-0.02191
755.485	-0.02191
755.796	-0.02191
756.106	-0.02192
756.417	-0.02191
756.727	-0.02192
757.037	-0.02191
757.347	-0.02192
757.658	-0.02191
757.968	-0.02191
758.278	-0.02191
758.588	-0.02191
758.898	-0.02191
759.208	-0.02192
759.517	-0.02192
759.827	-0.02192
760.137	-0.02192
760.447	-0.02192
760.756	-0.02191
761.066	-0.02191
761.375	-0.02191
761.685	-0.02191
761.994	-0.02191
762.304	-0.02191
762.613	-0.02191
762.922	-0.02191
763.232	-0.02191
763.541	-0.02191
763.85	-0.02191
764.159	-0.02191
764.468	-0.02191
764.777	-0.02191
765.086	-0.02191
765.395	-0.02191
765.704	-0.02191
766.013	-0.02191
766.321	-0.02191
766.63	-0.02191
766.939	-0.02191
767.247	-0.02191
767.556	-0.02191
767.864	-0.02191
768.173	-0.02191
768.481	-0.02191
768.789	-0.02191
769.098	-0.02191
769.406	-0.02191
769.714	-0.02191
770.022	-0.02191
770.33	-0.02191
770.638	-0.02191
770.946	-0.02191
771.254	-0.02191
771.562	-0.02191
771.87	-0.02191
772.178	-0.02191
772.486	-0.02191
772.793	-0.02191
773.101	-0.02191
773.408	-0.02191
773.716	-0.02191
774.023	-0.02191
774.331	-0.02191
774.638	-0.02191
774.946	-0.02191
775.253	-0.02191
775.56	-0.02191
775.867	-0.02191
776.174	-0.02191
776.481	-0.02191
776.788	-0.02191
777.095	-0.02191
777.402	-0.02192
777.709	-0.02191
778.016	-0.02191
778.323	-0.02191
778.63	-0.02191
778.936	-0.02192
779.243	-0.02192
779.549	-0.02192
779.856	-0.02192
780.162	-0.02192
780.469	-0.02192
780.775	-0.02192
781.082	-0.02192
781.388	-0.02192
781.694	-0.02192
782	-0.02192
782.306	-0.02191
782.612	-0.02191
782.918	-0.02192
783.224	-0.02192
783.53	-0.02192
783.836	-0.02192
784.142	-0.02192
784.448	-0.02191
784.753	-0.02192
785.059	-0.02191
785.365	-0.02191
785.67	-0.02191
785.976	-0.02192
786.281	-0.02192
786.586	-0.02192
786.892	-0.02192
787.197	-0.02192
787.502	-0.02192
787.808	-0.02192
788.113	-0.02192
788.418	-0.02191
788.723	-0.02192
789.028	-0.02192
789.333	-0.02192
789.638	-0.02191
789.942	-0.02191
790.247	-0.02191
790.552	-0.02191
790.857	-0.02191
791.161	-0.02191
791.466	-0.02191
791.77	-0.02191
792.075	-0.02191
792.379	-0.02191
792.684	-0.02191
792.988	-0.02191
793.292	-0.02191
793.597	-0.02191
793.901	-0.02191
794.205	-0.02191
794.509	-0.02191
794.813	-0.02191
795.117	-0.02191
795.421	-0.02191
795.725	-0.02191
796.029	-0.02191
796.332	-0.02191
796.636	-0.02191
796.94	-0.02192
797.243	-0.02191
797.547	-0.02192
797.85	-0.02192
798.154	-0.02192
798.457	-0.02191
798.761	-0.02192
799.064	-0.02192
799.367	-0.02192
799.67	-0.02192
799.973	-0.02191
800.277	-0.02191
800.58	-0.02191
800.883	-0.02191
801.186	-0.02191
801.488	-0.02191
801.791	-0.02191
802.094	-0.02191
802.397	-0.02191
802.699	-0.02191
803.002	-0.02191
803.305	-0.02192
803.607	-0.02191
803.91	-0.02191
804.212	-0.02191
804.515	-0.02191
804.817	-0.02191
805.119	-0.02191
805.421	-0.02191
805.724	-0.02191
806.026	-0.02191
806.328	-0.02191
806.63	-0.02191
806.932	-0.02191
807.234	-0.02191
807.535	-0.02191
807.837	-0.02191
808.139	-0.02191
808.441	-0.02192
808.742	-0.02192
809.044	-0.02192
809.346	-0.02191
809.647	-0.02191
809.948	-0.02191
810.25	-0.02191
810.551	-0.02191
810.853	-0.02191
811.154	-0.02191
811.455	-0.02191
811.756	-0.02192
812.057	-0.02192
812.358	-0.02192
812.659	-0.02192
812.96	-0.02192
813.261	-0.02192
813.562	-0.02192
813.863	-0.02192
814.163	-0.02192
814.464	-0.02192
814.765	-0.02192
815.065	-0.02191
815.366	-0.02191
815.666	-0.02191
815.967	-0.02191
816.267	-0.02191
816.567	-0.02191
816.868	-0.02191
817.168	-0.02192
817.468	-0.02192
817.768	-0.02192
818.068	-0.0219
818.368	-0.02186
818.668	-0.02175
818.968	-0.02118
819.268	-0.01987
819.568	-0.01843
819.867	-0.01693
820.167	-0.01503
820.467	-0.01314
820.766	-0.01062
821.066	-0.00783
821.365	-0.00567
821.665	-0.00329
821.964	-0.0004
822.263	0.00179
822.563	0.00528
822.862	0.00866
823.161	0.01166
823.46	0.01468
823.759	0.01756
824.058	0.02042
824.357	0.02382
824.656	0.02738
824.955	0.03068
825.254	0.0344
825.552	0.03804
825.851	0.04204
826.15	0.04672
826.448	0.05209
826.747	0.05675
827.045	0.0609
827.344	0.06461
827.642	0.06914
827.941	0.07454
828.239	0.0798
828.537	0.08501
828.835	0.08975
829.133	0.09452
829.432	0.09916
829.73	0.10421
830.028	0.10844
830.325	0.1114
830.623	0.11461
830.921	0.11735
831.219	0.1206
831.517	0.12495
831.814	0.12795
832.112	0.13108
832.409	0.1353
832.707	0.13826
833.004	0.14163
833.302	0.14585
833.599	0.14869
833.896	0.15191
834.194	0.15496
834.491	0.15682
834.788	0.15891
835.085	0.16077
835.382	0.16196
835.679	0.16326
835.976	0.16485
836.273	0.16566
836.57	0.16743
836.866	0.16898
837.163	0.1703
837.46	0.17115
837.756	0.17285
838.053	0.17374
838.349	0.17453
838.646	0.17504
838.942	0.17591
839.239	0.17727
839.535	0.17853
839.831	0.17871
840.127	0.17931
840.423	0.18005
840.72	0.18054
841.016	0.18083
841.312	0.18056
841.607	0.18062
841.903	0.18139
842.199	0.18176
842.495	0.18244
842.791	0.18255
843.086	0.18306
843.382	0.18464
843.677	0.1866
843.973	0.18766
844.268	0.18964
844.564	0.19144
844.859	0.1934
845.154	0.19486
845.45	0.19703
845.745	0.19781
846.04	0.1994
846.335	0.20074
846.63	0.20184
846.925	0.20365
847.22	0.20517
847.515	0.20608
847.81	0.20804
848.104	0.21061
848.399	0.21235
848.694	0.21463
848.988	0.21644
849.283	0.22006
849.578	0.22277
849.872	0.22752
850.166	0.23179
850.461	0.23681
850.755	0.24347
851.049	0.25026
851.343	0.2578
851.638	0.26548
851.932	0.27191
852.226	0.2784
852.52	0.28514
852.814	0.29302
853.107	0.30099
853.401	0.30822
853.695	0.31692
853.989	0.32601
854.282	0.34008
854.576	0.35563
854.869	0.3714
855.163	0.38692
855.456	0.40515
855.75	0.42532
856.043	0.45784
856.336	0.47208
856.63	0.49095
856.923	0.513
857.216	0.54196
857.509	0.58618
857.802	0.63217
858.095	0.67173
858.388	0.74925
858.681	0.85462
858.974	0.9874
859.266	1.18792
859.559	1.30534
859.852	1.55035
860.144	2.71679
860.437	-0
860.729	-0
861.022	-0
861.314	-0
861.606	-0
861.899	-0
862.191	-0
862.483	-0
862.775	-0
863.067	-0
863.359	-0
863.651	-0
863.943	-0
864.235	-0
864.527	-0
864.819	-0
865.11	-0
865.402	-0
865.693	-0
865.985	-0
866.276	-0
866.568	-0
866.859	-0
867.151	-0
867.442	-0
867.733	-0
868.024	-0
868.315	-0
868.606	-0
868.897	-0
869.188	-0
869.479	-0
869.77	-0
870.061	-0
870.351	-0
870.642	-0
870.933	-0
871.223	-0
871.514	-0
871.804	-0
872.095	-0
872.385	-0
872.675	-0
