Data from oven-75C-5d_1e-5_Absorbance_08-44-16-367.txt Node
Date: Tue Aug 29 08:44:16 EDT 2023
User: UV-vis
Spectrometer: FLMS04918
Trigger mode: 0
Integration Time (sec): 1.000000E-1
Scans to average: 3
Electric dark correction enabled: true
Nonlinearity correction enabled: false
Boxcar width: 3
XAxis mode: Wavelengths
Number of Pixels in Spectrum: 2048
>>>>>Begin Spectral Data<<<<<
179.23	0.35757
179.611	0.2858
179.992	0.25922
180.373	0.2585
180.754	0.11274
181.134	-0.06295
181.515	-0.62019
181.896	-1.26533
182.276	-0.34671
182.657	-0.45911
183.038	-0.45619
183.418	0.14755
183.799	-0
184.179	-0
184.56	-1.12248
184.94	-0.66461
185.32	-0.43366
185.701	-0.6332
186.081	-0
186.461	-0
186.842	0.36696
187.222	0.4164
187.602	0.42241
187.982	0.42392
188.362	0.42224
188.742	0.42329
189.122	0.42335
189.502	0.42226
189.882	0.42148
190.262	0.42132
190.642	0.42049
191.022	0.4203
191.402	0.42069
191.781	0.41971
192.161	0.42002
192.541	0.41997
192.92	0.41992
193.3	0.41931
193.68	0.42039
194.059	0.4198
194.439	0.42039
194.818	0.42093
195.198	0.42163
195.577	0.4205
195.957	0.42085
196.336	0.42203
196.715	0.42187
197.094	0.42258
197.474	0.42201
197.853	0.42194
198.232	0.42131
198.611	0.42326
198.99	0.42248
199.369	0.42166
199.748	0.42083
200.127	0.42148
200.506	0.42145
200.885	0.42346
201.264	0.42292
201.643	0.42235
202.022	0.42463
202.401	0.42643
202.779	0.42588
203.158	0.42333
203.537	0.42193
203.915	0.42117
204.294	0.42097
204.673	0.41893
205.051	0.41885
205.43	0.41976
205.808	0.42234
206.187	0.4236
206.565	0.4227
206.943	0.4225
207.322	0.42418
207.7	0.42042
208.078	0.42001
208.456	0.42056
208.835	0.42018
209.213	0.42228
209.591	0.42259
209.969	0.42084
210.347	0.42318
210.725	0.42388
211.103	0.42167
211.481	0.42135
211.859	0.41948
212.237	0.41933
212.614	0.41946
212.992	0.41976
213.37	0.41928
213.748	0.42044
214.125	0.41994
214.503	0.41991
214.881	0.42153
215.258	0.42173
215.636	0.4209
216.013	0.42144
216.391	0.42174
216.768	0.42292
217.145	0.42299
217.523	0.42187
217.9	0.42276
218.277	0.42399
218.655	0.42274
219.032	0.42233
219.409	0.42165
219.786	0.42189
220.163	0.42088
220.54	0.42063
220.917	0.42056
221.294	0.42211
221.671	0.42147
222.048	0.42225
222.425	0.42334
222.802	0.42452
223.179	0.42498
223.556	0.42459
223.932	0.42362
224.309	0.42354
224.686	0.42281
225.062	0.42287
225.439	0.4235
225.815	0.42301
226.192	0.42398
226.568	0.42403
226.945	0.42578
227.321	0.42559
227.698	0.42366
228.074	0.42384
228.45	0.42477
228.827	0.42342
229.203	0.42301
229.579	0.422
229.955	0.42385
230.331	0.42446
230.707	0.4226
231.083	0.42232
231.46	0.42474
231.835	0.42684
232.211	0.4258
232.587	0.42488
232.963	0.42455
233.339	0.42593
233.715	0.42665
234.091	0.42508
234.466	0.42376
234.842	0.42521
235.218	0.42429
235.593	0.42509
235.969	0.42364
236.344	0.4219
236.72	0.4215
237.095	0.42055
237.471	0.42152
237.846	0.42219
238.222	0.4225
238.597	0.42344
238.972	0.42437
239.348	0.424
239.723	0.42466
240.098	0.42281
240.473	0.42307
240.848	0.42165
241.223	0.42039
241.598	0.42021
241.973	0.42141
242.348	0.42288
242.723	0.42373
243.098	0.42377
243.473	0.42425
243.848	0.42606
244.223	0.42627
244.597	0.42538
244.972	0.42367
245.347	0.42327
245.721	0.42358
246.096	0.4239
246.47	0.42396
246.845	0.42388
247.219	0.42522
247.594	0.4253
247.968	0.42556
248.343	0.42601
248.717	0.42559
249.091	0.42528
249.466	0.42358
249.84	0.42251
250.214	0.42381
250.588	0.42363
250.962	0.4217
251.336	0.42146
251.71	0.42067
252.084	0.42273
252.458	0.42329
252.832	0.42163
253.206	0.42216
253.58	0.42471
253.954	0.42556
254.328	0.4261
254.702	0.42565
255.075	0.42501
255.449	0.42608
255.823	0.42669
256.196	0.42545
256.57	0.42619
256.943	0.42677
257.317	0.42812
257.69	0.42947
258.064	0.43008
258.437	0.42995
258.81	0.42954
259.184	0.42935
259.557	0.42948
259.93	0.42815
260.303	0.42873
260.677	0.42739
261.05	0.42683
261.423	0.42721
261.796	0.427
262.169	0.4271
262.542	0.42783
262.915	0.42579
263.288	0.4277
263.661	0.42811
264.033	0.4286
264.406	0.42875
264.779	0.4276
265.152	0.42836
265.524	0.42872
265.897	0.4278
266.27	0.42756
266.642	0.4283
267.015	0.42967
267.387	0.43117
267.76	0.42962
268.132	0.43193
268.504	0.43193
268.877	0.43261
269.249	0.43221
269.621	0.4309
269.994	0.43106
270.366	0.43374
270.738	0.4331
271.11	0.4339
271.482	0.43395
271.854	0.43465
272.226	0.43576
272.598	0.43642
272.97	0.43558
273.342	0.43497
273.714	0.43609
274.086	0.43606
274.458	0.43495
274.829	0.43468
275.201	0.43475
275.573	0.43533
275.944	0.43598
276.316	0.43492
276.688	0.4362
277.059	0.43785
277.431	0.43853
277.802	0.43895
278.173	0.43921
278.545	0.43993
278.916	0.44077
279.287	0.44262
279.659	0.44513
280.03	0.44901
280.401	0.45533
280.772	0.46347
281.143	0.4722
281.515	0.48178
281.886	0.48853
282.257	0.49242
282.628	0.49044
282.998	0.48094
283.369	0.45893
283.74	0.42571
284.111	0.38249
284.482	0.32952
284.853	0.26922
285.223	0.20696
285.594	0.14576
285.965	0.09227
286.335	0.04982
286.706	0.01667
287.076	-0.00735
287.447	-0.02281
287.817	-0.03144
288.188	-0.03473
288.558	-0.03474
288.928	-0.03474
289.299	-0.03474
289.669	-0.03474
290.039	-0.03474
290.409	-0.03474
290.779	-0.03474
291.149	-0.03474
291.52	-0.03473
291.89	-0.03473
292.26	-0.03474
292.629	-0.03474
292.999	-0.03473
293.369	-0.03473
293.739	-0.03473
294.109	-0.03474
294.479	-0.03474
294.848	-0.03474
295.218	-0.03474
295.588	-0.03474
295.957	-0.03474
296.327	-0.03474
296.696	-0.03473
297.066	-0.03473
297.435	-0.03473
297.805	-0.03473
298.174	-0.03473
298.544	-0.03473
298.913	-0.03473
299.282	-0.03473
299.651	-0.03473
300.021	-0.03474
300.39	-0.03474
300.759	-0.03474
301.128	-0.03474
301.497	-0.03474
301.866	-0.03473
302.235	-0.03474
302.604	-0.03474
302.973	-0.03474
303.342	-0.03474
303.71	-0.03474
304.079	-0.03474
304.448	-0.03474
304.817	-0.03474
305.185	-0.03474
305.554	-0.03474
305.923	-0.03474
306.291	-0.03475
306.66	-0.03474
307.028	-0.03475
307.397	-0.03475
307.765	-0.03475
308.133	-0.03475
308.502	-0.03475
308.87	-0.03475
309.238	-0.03475
309.606	-0.03475
309.975	-0.03475
310.343	-0.03475
310.711	-0.03474
311.079	-0.03474
311.447	-0.03474
311.815	-0.03474
312.183	-0.03474
312.551	-0.03474
312.919	-0.03474
313.286	-0.03474
313.654	-0.03474
314.022	-0.03474
314.39	-0.03474
314.757	-0.03474
315.125	-0.03474
315.492	-0.03474
315.86	-0.03474
316.228	-0.03474
316.595	-0.03474
316.962	-0.03474
317.33	-0.03474
317.697	-0.03474
318.065	-0.03474
318.432	-0.03474
318.799	-0.03474
319.166	-0.03474
319.534	-0.03474
319.901	-0.03474
320.268	-0.03474
320.635	-0.03474
321.002	-0.03474
321.369	-0.03475
321.736	-0.03475
322.103	-0.03475
322.47	-0.03475
322.836	-0.03475
323.203	-0.03475
323.57	-0.03475
323.937	-0.03475
324.303	-0.03475
324.67	-0.03474
325.037	-0.03474
325.403	-0.03474
325.77	-0.03474
326.136	-0.03474
326.503	-0.03475
326.869	-0.03474
327.235	-0.03474
327.602	-0.03474
327.968	-0.03474
328.334	-0.03474
328.7	-0.03473
329.067	-0.03473
329.433	-0.03473
329.799	-0.03473
330.165	-0.03473
330.531	-0.03473
330.897	-0.03474
331.263	-0.03474
331.629	-0.03474
331.995	-0.03474
332.36	-0.03475
332.726	-0.03475
333.092	-0.03475
333.458	-0.03474
333.823	-0.03475
334.189	-0.03474
334.554	-0.03474
334.92	-0.03474
335.286	-0.03474
335.651	-0.03474
336.016	-0.03474
336.382	-0.03474
336.747	-0.03474
337.113	-0.03474
337.478	-0.03474
337.843	-0.03474
338.208	-0.03474
338.573	-0.03474
338.939	-0.03474
339.304	-0.03474
339.669	-0.03474
340.034	-0.03474
340.399	-0.03474
340.764	-0.03474
341.129	-0.03474
341.493	-0.03474
341.858	-0.03474
342.223	-0.03474
342.588	-0.03474
342.952	-0.03474
343.317	-0.03474
343.682	-0.03474
344.046	-0.03474
344.411	-0.03474
344.775	-0.03474
345.14	-0.03474
345.504	-0.03474
345.869	-0.03474
346.233	-0.03474
346.597	-0.03474
346.962	-0.03474
347.326	-0.03474
347.69	-0.03474
348.054	-0.03474
348.418	-0.03474
348.782	-0.03474
349.146	-0.03475
349.51	-0.03475
349.874	-0.03475
350.238	-0.03475
350.602	-0.03475
350.966	-0.03475
351.33	-0.03475
351.693	-0.03475
352.057	-0.03475
352.421	-0.03475
352.784	-0.03475
353.148	-0.03474
353.512	-0.03474
353.875	-0.03474
354.239	-0.03474
354.602	-0.03474
354.966	-0.03473
355.329	-0.03473
355.692	-0.03474
356.056	-0.03474
356.419	-0.03473
356.782	-0.03474
357.145	-0.03474
357.508	-0.03474
357.871	-0.03474
358.234	-0.03473
358.597	-0.03473
358.96	-0.03474
359.323	-0.03474
359.686	-0.03474
360.049	-0.03474
360.412	-0.03474
360.775	-0.03475
361.137	-0.03475
361.5	-0.03475
361.863	-0.03475
362.225	-0.03475
362.588	-0.03474
362.951	-0.03475
363.313	-0.03474
363.675	-0.03475
364.038	-0.03474
364.4	-0.03474
364.763	-0.03474
365.125	-0.03474
365.487	-0.03474
365.849	-0.03474
366.212	-0.03474
366.574	-0.03474
366.936	-0.03474
367.298	-0.03473
367.66	-0.03473
368.022	-0.03474
368.384	-0.03474
368.746	-0.03474
369.108	-0.03474
369.469	-0.03474
369.831	-0.03474
370.193	-0.03474
370.555	-0.03474
370.916	-0.03474
371.278	-0.03474
371.64	-0.03474
372.001	-0.03474
372.363	-0.03474
372.724	-0.03474
373.086	-0.03474
373.447	-0.03474
373.808	-0.03474
374.17	-0.03474
374.531	-0.03474
374.892	-0.03475
375.253	-0.03475
375.615	-0.03475
375.976	-0.03474
376.337	-0.03474
376.698	-0.03474
377.059	-0.03474
377.42	-0.03473
377.781	-0.03474
378.141	-0.03474
378.502	-0.03474
378.863	-0.03474
379.224	-0.03474
379.585	-0.03474
379.945	-0.03474
380.306	-0.03474
380.666	-0.03474
381.027	-0.03474
381.388	-0.03474
381.748	-0.03474
382.108	-0.03475
382.469	-0.03475
382.829	-0.03475
383.19	-0.03475
383.55	-0.03475
383.91	-0.03474
384.27	-0.03474
384.63	-0.03474
384.991	-0.03474
385.351	-0.03474
385.711	-0.03474
386.071	-0.03474
386.431	-0.03474
386.791	-0.03474
387.15	-0.03475
387.51	-0.03475
387.87	-0.03475
388.23	-0.03475
388.589	-0.03475
388.949	-0.03475
389.309	-0.03474
389.668	-0.03474
390.028	-0.03474
390.387	-0.03473
390.747	-0.03473
391.106	-0.03473
391.466	-0.03473
391.825	-0.03474
392.184	-0.03474
392.544	-0.03474
392.903	-0.03474
393.262	-0.03474
393.621	-0.03475
393.98	-0.03475
394.339	-0.03475
394.698	-0.03475
395.057	-0.03475
395.416	-0.03475
395.775	-0.03475
396.134	-0.03474
396.493	-0.03474
396.852	-0.03474
397.211	-0.03474
397.569	-0.03474
397.928	-0.03474
398.287	-0.03474
398.645	-0.03474
399.004	-0.03474
399.362	-0.03474
399.721	-0.03474
400.079	-0.03474
400.438	-0.03474
400.796	-0.03474
401.154	-0.03475
401.512	-0.03475
401.871	-0.03475
402.229	-0.03475
402.587	-0.03475
402.945	-0.03475
403.303	-0.03476
403.661	-0.03476
404.019	-0.03476
404.377	-0.03476
404.735	-0.03476
405.093	-0.03475
405.451	-0.03475
405.808	-0.03475
406.166	-0.03475
406.524	-0.03475
406.882	-0.03475
407.239	-0.03475
407.597	-0.03475
407.954	-0.03475
408.312	-0.03475
408.669	-0.03475
409.027	-0.03475
409.384	-0.03474
409.741	-0.03474
410.099	-0.03474
410.456	-0.03474
410.813	-0.03474
411.17	-0.03473
411.527	-0.03473
411.884	-0.03473
412.242	-0.03473
412.599	-0.03473
412.956	-0.03473
413.312	-0.03474
413.669	-0.03474
414.026	-0.03474
414.383	-0.03474
414.74	-0.03474
415.096	-0.03474
415.453	-0.03474
415.81	-0.03474
416.166	-0.03474
416.523	-0.03475
416.879	-0.03475
417.236	-0.03475
417.592	-0.03475
417.949	-0.03475
418.305	-0.03475
418.661	-0.03475
419.018	-0.03474
419.374	-0.03474
419.73	-0.03474
420.086	-0.03474
420.442	-0.03474
420.798	-0.03474
421.154	-0.03475
421.51	-0.03475
421.866	-0.03475
422.222	-0.03475
422.578	-0.03475
422.934	-0.03474
423.29	-0.03474
423.646	-0.03474
424.001	-0.03475
424.357	-0.03475
424.713	-0.03475
425.068	-0.03475
425.424	-0.03475
425.779	-0.03475
426.135	-0.03475
426.49	-0.03475
426.845	-0.03475
427.201	-0.03475
427.556	-0.03475
427.911	-0.03475
428.266	-0.03475
428.622	-0.03474
428.977	-0.03474
429.332	-0.03474
429.687	-0.03474
430.042	-0.03474
430.397	-0.03474
430.752	-0.03474
431.107	-0.03475
431.461	-0.03475
431.816	-0.03474
432.171	-0.03474
432.526	-0.03474
432.88	-0.03474
433.235	-0.03474
433.59	-0.03474
433.944	-0.03474
434.299	-0.03474
434.653	-0.03475
435.008	-0.03474
435.362	-0.03474
435.716	-0.03475
436.071	-0.03474
436.425	-0.03474
436.779	-0.03474
437.133	-0.03473
437.487	-0.03474
437.841	-0.03474
438.195	-0.03474
438.549	-0.03474
438.903	-0.03474
439.257	-0.03475
439.611	-0.03475
439.965	-0.03475
440.319	-0.03475
440.673	-0.03475
441.026	-0.03474
441.38	-0.03474
441.734	-0.03474
442.087	-0.03474
442.441	-0.03474
442.794	-0.03474
443.148	-0.03474
443.501	-0.03475
443.855	-0.03474
444.208	-0.03474
444.561	-0.03474
444.915	-0.03475
445.268	-0.03474
445.621	-0.03474
445.974	-0.03474
446.327	-0.03474
446.68	-0.03474
447.033	-0.03474
447.386	-0.03474
447.739	-0.03474
448.092	-0.03474
448.445	-0.03475
448.798	-0.03474
449.15	-0.03474
449.503	-0.03474
449.856	-0.03474
450.209	-0.03474
450.561	-0.03474
450.914	-0.03474
451.266	-0.03474
451.619	-0.03474
451.971	-0.03474
452.323	-0.03474
452.676	-0.03474
453.028	-0.03474
453.38	-0.03474
453.733	-0.03474
454.085	-0.03474
454.437	-0.03474
454.789	-0.03474
455.141	-0.03475
455.493	-0.03475
455.845	-0.03475
456.197	-0.03475
456.549	-0.03475
456.901	-0.03475
457.253	-0.03475
457.604	-0.03475
457.956	-0.03475
458.308	-0.03475
458.659	-0.03474
459.011	-0.03474
459.362	-0.03475
459.714	-0.03474
460.065	-0.03474
460.417	-0.03474
460.768	-0.03474
461.12	-0.03474
461.471	-0.03473
461.822	-0.03473
462.173	-0.03474
462.525	-0.03474
462.876	-0.03474
463.227	-0.03474
463.578	-0.03474
463.929	-0.03474
464.28	-0.03474
464.631	-0.03474
464.982	-0.03474
465.332	-0.03475
465.683	-0.03474
466.034	-0.03475
466.385	-0.03474
466.735	-0.03474
467.086	-0.03474
467.437	-0.03475
467.787	-0.03474
468.138	-0.03474
468.488	-0.03474
468.839	-0.03474
469.189	-0.03474
469.539	-0.03474
469.89	-0.03473
470.24	-0.03473
470.59	-0.03474
470.94	-0.03475
471.29	-0.03475
471.64	-0.03475
471.99	-0.03475
472.34	-0.03475
472.69	-0.03475
473.04	-0.03475
473.39	-0.03475
473.74	-0.03474
474.09	-0.03474
474.439	-0.03474
474.789	-0.03475
475.139	-0.03475
475.488	-0.03474
475.838	-0.03474
476.188	-0.03475
476.537	-0.03475
476.886	-0.03474
477.236	-0.03475
477.585	-0.03474
477.935	-0.03474
478.284	-0.03474
478.633	-0.03474
478.982	-0.03474
479.331	-0.03475
479.68	-0.03474
480.03	-0.03474
480.379	-0.03475
480.728	-0.03475
481.076	-0.03475
481.425	-0.03475
481.774	-0.03475
482.123	-0.03475
482.472	-0.03475
482.821	-0.03475
483.169	-0.03475
483.518	-0.03475
483.866	-0.03475
484.215	-0.03475
484.563	-0.03475
484.912	-0.03475
485.26	-0.03475
485.609	-0.03475
485.957	-0.03475
486.305	-0.03475
486.654	-0.03475
487.002	-0.03474
487.35	-0.03474
487.698	-0.03473
488.046	-0.03473
488.394	-0.03473
488.742	-0.03473
489.09	-0.03473
489.438	-0.03474
489.786	-0.03473
490.134	-0.03474
490.482	-0.03474
490.829	-0.03474
491.177	-0.03474
491.525	-0.03474
491.872	-0.03474
492.22	-0.03474
492.567	-0.03473
492.915	-0.03473
493.262	-0.03474
493.61	-0.03473
493.957	-0.03474
494.304	-0.03474
494.652	-0.03474
494.999	-0.03475
495.346	-0.03475
495.693	-0.03475
496.04	-0.03475
496.387	-0.03475
496.734	-0.03475
497.081	-0.03476
497.428	-0.03475
497.775	-0.03475
498.122	-0.03475
498.469	-0.03475
498.816	-0.03475
499.162	-0.03474
499.509	-0.03474
499.856	-0.03474
500.202	-0.03474
500.549	-0.03474
500.895	-0.03474
501.242	-0.03474
501.588	-0.03474
501.935	-0.03474
502.281	-0.03475
502.627	-0.03475
502.973	-0.03474
503.32	-0.03475
503.666	-0.03474
504.012	-0.03475
504.358	-0.03474
504.704	-0.03475
505.05	-0.03475
505.396	-0.03475
505.742	-0.03475
506.088	-0.03475
506.433	-0.03475
506.779	-0.03475
507.125	-0.03475
507.471	-0.03475
507.816	-0.03475
508.162	-0.03475
508.507	-0.03475
508.853	-0.03475
509.198	-0.03474
509.544	-0.03474
509.889	-0.03474
510.234	-0.03474
510.58	-0.03474
510.925	-0.03474
511.27	-0.03474
511.615	-0.03474
511.96	-0.03475
512.306	-0.03475
512.651	-0.03474
512.996	-0.03474
513.341	-0.03475
513.685	-0.03475
514.03	-0.03475
514.375	-0.03475
514.72	-0.03475
515.065	-0.03475
515.409	-0.03476
515.754	-0.03475
516.099	-0.03475
516.443	-0.03475
516.788	-0.03475
517.132	-0.03475
517.476	-0.03474
517.821	-0.03474
518.165	-0.03475
518.51	-0.03475
518.854	-0.03474
519.198	-0.03474
519.542	-0.03474
519.886	-0.03475
520.23	-0.03474
520.574	-0.03474
520.918	-0.03474
521.262	-0.03474
521.606	-0.03474
521.95	-0.03474
522.294	-0.03474
522.638	-0.03474
522.981	-0.03474
523.325	-0.03475
523.669	-0.03475
524.012	-0.03475
524.356	-0.03475
524.699	-0.03475
525.043	-0.03475
525.386	-0.03475
525.73	-0.03476
526.073	-0.03476
526.416	-0.03476
526.76	-0.03477
527.103	-0.03477
527.446	-0.03477
527.789	-0.03476
528.132	-0.03474
528.475	-0.03475
528.818	-0.03475
529.161	-0.03474
529.504	-0.03474
529.847	-0.03474
530.19	-0.03474
530.532	-0.03474
530.875	-0.03474
531.218	-0.03474
531.56	-0.03474
531.903	-0.03474
532.246	-0.03474
532.588	-0.03474
532.93	-0.03474
533.273	-0.03474
533.615	-0.03474
533.958	-0.03474
534.3	-0.03474
534.642	-0.03475
534.984	-0.03475
535.326	-0.03475
535.669	-0.03475
536.011	-0.03475
536.353	-0.03475
536.695	-0.03475
537.037	-0.03475
537.378	-0.03475
537.72	-0.03475
538.062	-0.03475
538.404	-0.03475
538.746	-0.03475
539.087	-0.03475
539.429	-0.03475
539.77	-0.03475
540.112	-0.03475
540.454	-0.03475
540.795	-0.03475
541.136	-0.03474
541.478	-0.03474
541.819	-0.03474
542.16	-0.03474
542.502	-0.03474
542.843	-0.03474
543.184	-0.03475
543.525	-0.03475
543.866	-0.03475
544.207	-0.03475
544.548	-0.03475
544.889	-0.03475
545.23	-0.03475
545.571	-0.03475
545.911	-0.03475
546.252	-0.03475
546.593	-0.03475
546.934	-0.03474
547.274	-0.03475
547.615	-0.03475
547.955	-0.03475
548.296	-0.03475
548.636	-0.03475
548.977	-0.03474
549.317	-0.03475
549.657	-0.03475
549.997	-0.03474
550.338	-0.03474
550.678	-0.03474
551.018	-0.03474
551.358	-0.03474
551.698	-0.03474
552.038	-0.03474
552.378	-0.03474
552.718	-0.03474
553.058	-0.03474
553.398	-0.03475
553.737	-0.03475
554.077	-0.03475
554.417	-0.03474
554.756	-0.03474
555.096	-0.03474
555.435	-0.03474
555.775	-0.03474
556.114	-0.03474
556.454	-0.03474
556.793	-0.03475
557.133	-0.03475
557.472	-0.03475
557.811	-0.03475
558.15	-0.03475
558.489	-0.03475
558.829	-0.03475
559.168	-0.03475
559.507	-0.03475
559.846	-0.03475
560.184	-0.03475
560.523	-0.03475
560.862	-0.03474
561.201	-0.03474
561.54	-0.03474
561.878	-0.03474
562.217	-0.03475
562.556	-0.03475
562.894	-0.03474
563.233	-0.03475
563.571	-0.03475
563.91	-0.03474
564.248	-0.03474
564.586	-0.03474
564.925	-0.03474
565.263	-0.03474
565.601	-0.03474
565.939	-0.03474
566.277	-0.03475
566.616	-0.03474
566.954	-0.03474
567.292	-0.03474
567.63	-0.03474
567.967	-0.03475
568.305	-0.03475
568.643	-0.03475
568.981	-0.03475
569.319	-0.03476
569.656	-0.03476
569.994	-0.03475
570.331	-0.03475
570.669	-0.03475
571.006	-0.03475
571.344	-0.03475
571.681	-0.03475
572.019	-0.03474
572.356	-0.03475
572.693	-0.03474
573.03	-0.03474
573.368	-0.03474
573.705	-0.03474
574.042	-0.03474
574.379	-0.03474
574.716	-0.03474
575.053	-0.03474
575.39	-0.03474
575.727	-0.03474
576.063	-0.03474
576.4	-0.03475
576.737	-0.03475
577.074	-0.03474
577.41	-0.03474
577.747	-0.03475
578.083	-0.03475
578.42	-0.03475
578.756	-0.03474
579.093	-0.03474
579.429	-0.03474
579.766	-0.03475
580.102	-0.03474
580.438	-0.03474
580.774	-0.03474
581.11	-0.03474
581.446	-0.03474
581.782	-0.03474
582.119	-0.03474
582.454	-0.03474
582.79	-0.03474
583.126	-0.03474
583.462	-0.03474
583.798	-0.03475
584.134	-0.03475
584.469	-0.03475
584.805	-0.03475
585.141	-0.03475
585.476	-0.03476
585.812	-0.03476
586.147	-0.03475
586.482	-0.03475
586.818	-0.03475
587.153	-0.03475
587.488	-0.03475
587.824	-0.03475
588.159	-0.03475
588.494	-0.03475
588.829	-0.03475
589.164	-0.03475
589.499	-0.03475
589.834	-0.03475
590.169	-0.03475
590.504	-0.03475
590.839	-0.03474
591.174	-0.03474
591.508	-0.03475
591.843	-0.03475
592.178	-0.03475
592.512	-0.03475
592.847	-0.03475
593.181	-0.03476
593.516	-0.03476
593.85	-0.03476
594.185	-0.03475
594.519	-0.03475
594.853	-0.03475
595.187	-0.03475
595.522	-0.03475
595.856	-0.03475
596.19	-0.03475
596.524	-0.03474
596.858	-0.03474
597.192	-0.03474
597.526	-0.03474
597.86	-0.03474
598.194	-0.03474
598.527	-0.03474
598.861	-0.03475
599.195	-0.03475
599.528	-0.03475
599.862	-0.03475
600.196	-0.03475
600.529	-0.03475
600.863	-0.03475
601.196	-0.03475
601.529	-0.03475
601.863	-0.03475
602.196	-0.03475
602.529	-0.03475
602.862	-0.03475
603.196	-0.03475
603.529	-0.03475
603.862	-0.03475
604.195	-0.03475
604.528	-0.03475
604.861	-0.03475
605.193	-0.03474
605.526	-0.03474
605.859	-0.03474
606.192	-0.03474
606.524	-0.03474
606.857	-0.03474
607.19	-0.03475
607.522	-0.03475
607.855	-0.03475
608.187	-0.03475
608.52	-0.03475
608.852	-0.03475
609.184	-0.03475
609.517	-0.03474
609.849	-0.03474
610.181	-0.03474
610.513	-0.03474
610.845	-0.03474
611.177	-0.03474
611.509	-0.03474
611.841	-0.03475
612.173	-0.03475
612.505	-0.03475
612.837	-0.03475
613.169	-0.03475
613.5	-0.03475
613.832	-0.03475
614.164	-0.03475
614.495	-0.03475
614.827	-0.03475
615.158	-0.03475
615.49	-0.03474
615.821	-0.03475
616.152	-0.03475
616.484	-0.03475
616.815	-0.03475
617.146	-0.03475
617.477	-0.03475
617.808	-0.03475
618.14	-0.03475
618.471	-0.03474
618.802	-0.03474
619.133	-0.03474
619.463	-0.03474
619.794	-0.03474
620.125	-0.03474
620.456	-0.03474
620.787	-0.03474
621.117	-0.03474
621.448	-0.03474
621.778	-0.03474
622.109	-0.03474
622.439	-0.03474
622.77	-0.03474
623.1	-0.03474
623.43	-0.03475
623.761	-0.03475
624.091	-0.03475
624.421	-0.03475
624.751	-0.03475
625.081	-0.03475
625.412	-0.03475
625.742	-0.03474
626.072	-0.03474
626.401	-0.03474
626.731	-0.03474
627.061	-0.03474
627.391	-0.03474
627.721	-0.03474
628.05	-0.03474
628.38	-0.03474
628.71	-0.03473
629.039	-0.03474
629.369	-0.03473
629.698	-0.03474
630.028	-0.03474
630.357	-0.03474
630.686	-0.03474
631.015	-0.03474
631.345	-0.03474
631.674	-0.03474
632.003	-0.03474
632.332	-0.03474
632.661	-0.03474
632.99	-0.03474
633.319	-0.03474
633.648	-0.03474
633.977	-0.03474
634.306	-0.03474
634.634	-0.03474
634.963	-0.03474
635.292	-0.03474
635.62	-0.03474
635.949	-0.03474
636.277	-0.03474
636.606	-0.03474
636.934	-0.03474
637.263	-0.03474
637.591	-0.03474
637.919	-0.03474
638.248	-0.03475
638.576	-0.03475
638.904	-0.03475
639.232	-0.03475
639.56	-0.03475
639.888	-0.03475
640.216	-0.03475
640.544	-0.03474
640.872	-0.03475
641.2	-0.03475
641.528	-0.03475
641.855	-0.03475
642.183	-0.03475
642.511	-0.03475
642.838	-0.03475
643.166	-0.03475
643.493	-0.03475
643.821	-0.03475
644.148	-0.03475
644.475	-0.03475
644.803	-0.03474
645.13	-0.03474
645.457	-0.03475
645.784	-0.03475
646.112	-0.03475
646.439	-0.03475
646.766	-0.03475
647.093	-0.03475
647.42	-0.03474
647.746	-0.03474
648.073	-0.03474
648.4	-0.03474
648.727	-0.03474
649.053	-0.03474
649.38	-0.03475
649.707	-0.03475
650.033	-0.03474
650.36	-0.03475
650.686	-0.03474
651.013	-0.03474
651.339	-0.03474
651.665	-0.03474
651.992	-0.03474
652.318	-0.03474
652.644	-0.03473
652.97	-0.03474
653.296	-0.03474
653.622	-0.03474
653.948	-0.03474
654.274	-0.03474
654.6	-0.03474
654.926	-0.03474
655.252	-0.03474
655.578	-0.03473
655.903	-0.03474
656.229	-0.03474
656.555	-0.03473
656.88	-0.03474
657.206	-0.03474
657.531	-0.03474
657.857	-0.03475
658.182	-0.03475
658.507	-0.03475
658.833	-0.03475
659.158	-0.03475
659.483	-0.03475
659.808	-0.03474
660.133	-0.03474
660.458	-0.03473
660.783	-0.03473
661.108	-0.03474
661.433	-0.03474
661.758	-0.03474
662.083	-0.03474
662.408	-0.03474
662.732	-0.03474
663.057	-0.03474
663.382	-0.03474
663.706	-0.03474
664.031	-0.03474
664.355	-0.03474
664.68	-0.03474
665.004	-0.03474
665.328	-0.03474
665.653	-0.03475
665.977	-0.03475
666.301	-0.03475
666.625	-0.03475
666.949	-0.03475
667.273	-0.03475
667.597	-0.03475
667.921	-0.03475
668.245	-0.03475
668.569	-0.03475
668.893	-0.03475
669.217	-0.03475
669.54	-0.03475
669.864	-0.03474
670.188	-0.03474
670.511	-0.03475
670.835	-0.03475
671.158	-0.03475
671.482	-0.03475
671.805	-0.03475
672.128	-0.03475
672.452	-0.03475
672.775	-0.03475
673.098	-0.03474
673.421	-0.03474
673.744	-0.03474
674.068	-0.03474
674.391	-0.03474
674.714	-0.03474
675.036	-0.03474
675.359	-0.03474
675.682	-0.03474
676.005	-0.03475
676.328	-0.03474
676.65	-0.03474
676.973	-0.03474
677.295	-0.03474
677.618	-0.03474
677.94	-0.03475
678.263	-0.03474
678.585	-0.03474
678.908	-0.03474
679.23	-0.03473
679.552	-0.03474
679.874	-0.03473
680.196	-0.03473
680.519	-0.03473
680.841	-0.03474
681.163	-0.03474
681.485	-0.03474
681.807	-0.03474
682.128	-0.03474
682.45	-0.03474
682.772	-0.03474
683.094	-0.03474
683.415	-0.03474
683.737	-0.03474
684.059	-0.03474
684.38	-0.03474
684.702	-0.03474
685.023	-0.03474
685.344	-0.03473
685.666	-0.03473
685.987	-0.03473
686.308	-0.03473
686.629	-0.03473
686.95	-0.03473
687.272	-0.03474
687.593	-0.03474
687.914	-0.03474
688.235	-0.03474
688.555	-0.03474
688.876	-0.03474
689.197	-0.03474
689.518	-0.03475
689.839	-0.03474
690.159	-0.03474
690.48	-0.03474
690.8	-0.03474
691.121	-0.03474
691.441	-0.03473
691.762	-0.03473
692.082	-0.03473
692.402	-0.03473
692.723	-0.03473
693.043	-0.03473
693.363	-0.03474
693.683	-0.03474
694.003	-0.03474
694.323	-0.03474
694.643	-0.03474
694.963	-0.03473
695.283	-0.03473
695.603	-0.03474
695.923	-0.03474
696.243	-0.03474
696.562	-0.03474
696.882	-0.03474
697.202	-0.03474
697.521	-0.03475
697.841	-0.03474
698.16	-0.03474
698.479	-0.03474
698.799	-0.03474
699.118	-0.03475
699.437	-0.03475
699.757	-0.03474
700.076	-0.03474
700.395	-0.03474
700.714	-0.03474
701.033	-0.03474
701.352	-0.03474
701.671	-0.03474
701.99	-0.03474
702.308	-0.03474
702.627	-0.03475
702.946	-0.03475
703.265	-0.03475
703.583	-0.03475
703.902	-0.03475
704.22	-0.03475
704.539	-0.03474
704.857	-0.03474
705.176	-0.03474
705.494	-0.03474
705.812	-0.03474
706.131	-0.03474
706.449	-0.03474
706.767	-0.03474
707.085	-0.03475
707.403	-0.03474
707.721	-0.03475
708.039	-0.03475
708.357	-0.03475
708.675	-0.03475
708.993	-0.03475
709.31	-0.03474
709.628	-0.03474
709.946	-0.03474
710.263	-0.03474
710.581	-0.03474
710.898	-0.03474
711.216	-0.03474
711.533	-0.03474
711.851	-0.03474
712.168	-0.03474
712.485	-0.03474
712.802	-0.03474
713.12	-0.03473
713.437	-0.03473
713.754	-0.03474
714.071	-0.03474
714.388	-0.03474
714.705	-0.03474
715.022	-0.03474
715.338	-0.03475
715.655	-0.03475
715.972	-0.03474
716.289	-0.03474
716.605	-0.03474
716.922	-0.03474
717.238	-0.03474
717.555	-0.03474
717.871	-0.03474
718.188	-0.03474
718.504	-0.03474
718.82	-0.03474
719.136	-0.03474
719.453	-0.03474
719.769	-0.03474
720.085	-0.03474
720.401	-0.03474
720.717	-0.03474
721.033	-0.03474
721.349	-0.03474
721.665	-0.03474
721.98	-0.03474
722.296	-0.03474
722.612	-0.03474
722.927	-0.03474
723.243	-0.03474
723.559	-0.03474
723.874	-0.03474
724.19	-0.03474
724.505	-0.03474
724.82	-0.03474
725.136	-0.03474
725.451	-0.03475
725.766	-0.03474
726.081	-0.03474
726.396	-0.03474
726.711	-0.03474
727.026	-0.03474
727.341	-0.03474
727.656	-0.03474
727.971	-0.03474
728.286	-0.03474
728.601	-0.03475
728.916	-0.03474
729.23	-0.03474
729.545	-0.03474
729.859	-0.03475
730.174	-0.03475
730.488	-0.03474
730.803	-0.03474
731.117	-0.03474
731.431	-0.03474
731.746	-0.03474
732.06	-0.03475
732.374	-0.03474
732.688	-0.03475
733.002	-0.03475
733.316	-0.03475
733.63	-0.03474
733.944	-0.03474
734.258	-0.03474
734.572	-0.03474
734.886	-0.03474
735.199	-0.03474
735.513	-0.03474
735.827	-0.03474
736.14	-0.03474
736.454	-0.03474
736.767	-0.03474
737.081	-0.03475
737.394	-0.03475
737.708	-0.03475
738.021	-0.03475
738.334	-0.03475
738.647	-0.03475
738.96	-0.03475
739.273	-0.03475
739.587	-0.03475
739.9	-0.03474
740.212	-0.03474
740.525	-0.03474
740.838	-0.03474
741.151	-0.03474
741.464	-0.03474
741.776	-0.03475
742.089	-0.03475
742.402	-0.03475
742.714	-0.03474
743.027	-0.03474
743.339	-0.03474
743.651	-0.03474
743.964	-0.03474
744.276	-0.03473
744.588	-0.03473
744.901	-0.03474
745.213	-0.03474
745.525	-0.03474
745.837	-0.03474
746.149	-0.03474
746.461	-0.03474
746.773	-0.03474
747.085	-0.03474
747.396	-0.03475
747.708	-0.03475
748.02	-0.03475
748.331	-0.03475
748.643	-0.03475
748.955	-0.03475
749.266	-0.03475
749.577	-0.03475
749.889	-0.03475
750.2	-0.03475
750.512	-0.03475
750.823	-0.03474
751.134	-0.03474
751.445	-0.03474
751.756	-0.03474
752.067	-0.03474
752.378	-0.03474
752.689	-0.03474
753	-0.03474
753.311	-0.03474
753.622	-0.03474
753.932	-0.03474
754.243	-0.03474
754.554	-0.03474
754.864	-0.03475
755.175	-0.03475
755.485	-0.03475
755.796	-0.03475
756.106	-0.03475
756.417	-0.03475
756.727	-0.03475
757.037	-0.03475
757.347	-0.03475
757.658	-0.03475
757.968	-0.03475
758.278	-0.03474
758.588	-0.03474
758.898	-0.03474
759.208	-0.03474
759.517	-0.03474
759.827	-0.03474
760.137	-0.03474
760.447	-0.03473
760.756	-0.03473
761.066	-0.03473
761.375	-0.03473
761.685	-0.03473
761.994	-0.03474
762.304	-0.03474
762.613	-0.03474
762.922	-0.03475
763.232	-0.03474
763.541	-0.03474
763.85	-0.03474
764.159	-0.03474
764.468	-0.03474
764.777	-0.03474
765.086	-0.03474
765.395	-0.03474
765.704	-0.03474
766.013	-0.03474
766.321	-0.03475
766.63	-0.03475
766.939	-0.03475
767.247	-0.03475
767.556	-0.03475
767.864	-0.03474
768.173	-0.03474
768.481	-0.03474
768.789	-0.03475
769.098	-0.03474
769.406	-0.03474
769.714	-0.03474
770.022	-0.03474
770.33	-0.03474
770.638	-0.03474
770.946	-0.03474
771.254	-0.03474
771.562	-0.03474
771.87	-0.03474
772.178	-0.03474
772.486	-0.03474
772.793	-0.03474
773.101	-0.03474
773.408	-0.03474
773.716	-0.03474
774.023	-0.03474
774.331	-0.03473
774.638	-0.03473
774.946	-0.03473
775.253	-0.03473
775.56	-0.03473
775.867	-0.03473
776.174	-0.03472
776.481	-0.03473
776.788	-0.03473
777.095	-0.03473
777.402	-0.03473
777.709	-0.03474
778.016	-0.03474
778.323	-0.03474
778.63	-0.03474
778.936	-0.03474
779.243	-0.03473
779.549	-0.03473
779.856	-0.03473
780.162	-0.03473
780.469	-0.03473
780.775	-0.03473
781.082	-0.03473
781.388	-0.03474
781.694	-0.03474
782	-0.03474
782.306	-0.03474
782.612	-0.03474
782.918	-0.03474
783.224	-0.03475
783.53	-0.03474
783.836	-0.03474
784.142	-0.03475
784.448	-0.03475
784.753	-0.03474
785.059	-0.03475
785.365	-0.03474
785.67	-0.03474
785.976	-0.03474
786.281	-0.03474
786.586	-0.03473
786.892	-0.03474
787.197	-0.03473
787.502	-0.03473
787.808	-0.03473
788.113	-0.03473
788.418	-0.03473
788.723	-0.03474
789.028	-0.03474
789.333	-0.03474
789.638	-0.03474
789.942	-0.03474
790.247	-0.03474
790.552	-0.03474
790.857	-0.03474
791.161	-0.03474
791.466	-0.03474
791.77	-0.03474
792.075	-0.03474
792.379	-0.03474
792.684	-0.03474
792.988	-0.03474
793.292	-0.03474
793.597	-0.03474
793.901	-0.03474
794.205	-0.03474
794.509	-0.03473
794.813	-0.03473
795.117	-0.03474
795.421	-0.03474
795.725	-0.03474
796.029	-0.03474
796.332	-0.03474
796.636	-0.03474
796.94	-0.03474
797.243	-0.03474
797.547	-0.03475
797.85	-0.03474
798.154	-0.03475
798.457	-0.03475
798.761	-0.03475
799.064	-0.03474
799.367	-0.03474
799.67	-0.03474
799.973	-0.03474
800.277	-0.03474
800.58	-0.03474
800.883	-0.03474
801.186	-0.03474
801.488	-0.03474
801.791	-0.03474
802.094	-0.03474
802.397	-0.03475
802.699	-0.03475
803.002	-0.03475
803.305	-0.03475
803.607	-0.03474
803.91	-0.03474
804.212	-0.03474
804.515	-0.03474
804.817	-0.03474
805.119	-0.03474
805.421	-0.03474
805.724	-0.03474
806.026	-0.03474
806.328	-0.03474
806.63	-0.03474
806.932	-0.03474
807.234	-0.03474
807.535	-0.03474
807.837	-0.03474
808.139	-0.03474
808.441	-0.03474
808.742	-0.03473
809.044	-0.03473
809.346	-0.03473
809.647	-0.03473
809.948	-0.03473
810.25	-0.03473
810.551	-0.03448
810.853	-0.03422
811.154	-0.03397
811.455	-0.03333
811.756	-0.03221
812.057	-0.0309
812.358	-0.02953
812.659	-0.02798
812.96	-0.02617
813.261	-0.02431
813.562	-0.02233
813.863	-0.01993
814.163	-0.01779
814.464	-0.01556
814.765	-0.01364
815.065	-0.01159
815.366	-0.00921
815.666	-0.0068
815.967	-0.00496
816.267	-0.0029
816.567	-0.0008
816.868	0.00167
817.168	0.00455
817.468	0.00789
817.768	0.01078
818.068	0.01381
818.368	0.01734
818.668	0.02063
818.968	0.02434
819.268	0.02787
819.568	0.03095
819.867	0.03378
820.167	0.03686
820.467	0.03945
820.766	0.04336
821.066	0.04739
821.365	0.05127
821.665	0.05523
821.964	0.06047
822.263	0.06446
822.563	0.07048
822.862	0.07562
823.161	0.08012
823.46	0.08457
823.759	0.08949
824.058	0.0936
824.357	0.09942
824.656	0.10486
824.955	0.11037
825.254	0.11619
825.552	0.12168
825.851	0.12668
826.15	0.1331
826.448	0.14006
826.747	0.14576
827.045	0.15061
827.344	0.15534
827.642	0.16068
827.941	0.16754
828.239	0.17389
828.537	0.17972
828.835	0.18561
829.133	0.19206
829.432	0.19871
829.73	0.20662
830.028	0.21291
830.325	0.21856
830.623	0.22341
830.921	0.22806
831.219	0.23294
831.517	0.23774
831.814	0.24127
832.112	0.24468
832.409	0.24855
832.707	0.25198
833.004	0.25522
833.302	0.25869
833.599	0.26201
833.896	0.26534
834.194	0.26905
834.491	0.27172
834.788	0.27462
835.085	0.27747
835.382	0.28085
835.679	0.2838
835.976	0.2852
836.273	0.28713
836.57	0.2885
836.866	0.29025
837.163	0.29164
837.46	0.29218
837.756	0.29333
838.053	0.29552
838.349	0.29583
838.646	0.29694
838.942	0.29728
839.239	0.29779
839.535	0.29825
839.831	0.29872
840.127	0.2989
840.423	0.30026
840.72	0.3012
841.016	0.30269
841.312	0.30349
841.607	0.30472
841.903	0.30433
842.199	0.30413
842.495	0.30431
842.791	0.30486
843.086	0.30469
843.382	0.3055
843.677	0.30571
843.973	0.30681
844.268	0.30713
844.564	0.3067
844.859	0.30625
845.154	0.30696
845.45	0.30655
845.745	0.30744
846.04	0.30884
846.335	0.30944
846.63	0.31019
846.925	0.3114
847.22	0.3131
847.515	0.31479
847.81	0.31494
848.104	0.31469
848.399	0.31579
848.694	0.31831
848.988	0.31798
849.283	0.31683
849.578	0.31584
849.872	0.31638
850.166	0.31778
850.461	0.32107
850.755	0.32125
851.049	0.32374
851.343	0.32535
851.638	0.32841
851.932	0.32966
852.226	0.32966
852.52	0.33119
852.814	0.33095
853.107	0.335
853.401	0.3358
853.695	0.33819
853.989	0.34369
854.282	0.34987
854.576	0.35555
854.869	0.36195
855.163	0.36367
855.456	0.37332
855.75	0.38207
856.043	0.38726
856.336	0.39196
856.63	0.39293
856.923	0.40002
857.216	0.41747
857.509	0.42421
857.802	0.4341
858.095	0.44311
858.388	0.45287
858.681	0.46275
858.974	0.47559
859.266	0.48145
859.559	0.4934
859.852	0.5054
860.144	0.51979
860.437	0.53251
860.729	0.54858
861.022	0.57283
861.314	0.57204
861.606	0.57502
861.899	0.59987
862.191	0.62572
862.483	0.63821
862.775	0.67572
863.067	0.67686
863.359	0.70494
863.651	0.74835
863.943	0.75274
864.235	0.79351
864.527	0.82724
864.819	0.82312
865.11	0.85392
865.402	0.85281
865.693	0.86422
865.985	0.89555
866.276	0.87876
866.568	0.85294
866.859	0.8526
867.151	0.86983
867.442	0.88312
867.733	0.88338
868.024	0.90475
868.315	0.90381
868.606	0.98167
868.897	1.03138
869.188	1.00998
869.479	1.01483
869.77	1.03596
870.061	0.98029
870.351	1.01588
870.642	0.96318
870.933	0.97079
871.223	0.97966
871.514	0.99262
871.804	0.98322
872.095	1.00871
872.385	0.98315
872.675	1.01772
